1520503193.446166 -0.040088557 -0.003510613 -0.006299799 0.999985695 0.004514033 0.001790357 -0.002261661
1520503193.496166 -0.046357188 -0.004053564 -0.005285006 0.999982238 0.004652654 0.003705871 0.000461512
1520503193.546179 -0.061041661 -0.003550805 -0.006394943 0.999982178 0.003548216 0.002425724 0.004149399
1520503193.596181 -0.064088538 -0.002158054 -0.006960245 0.999980927 0.002766853 0.001092871 0.005421643
1520503193.646182 -0.086750872 -0.005033877 -0.005504224 0.999979734 0.001778352 0.001925724 0.005810027
1520503193.696184 -0.092764355 -0.003583120 -0.006539479 0.999989629 0.001218269 0.003200245 0.003025891
1520503193.746185 -0.116332635 -0.008886252 -0.004934787 0.999983490 0.002940493 0.004925960 0.000530406
1520503193.796187 -0.125476852 -0.011943134 -0.004897765 0.999976754 0.001597851 0.005433403 -0.003799137
1520503193.846188 -0.148934588 -0.015081352 -0.003401528 0.999943554 0.000211250 0.005729946 -0.008947759
1520503193.896190 -0.142522797 -0.013204912 -0.003335484 0.999906480 0.001963098 0.006488302 -0.011885089
1520503193.946197 -0.179958269 -0.021905832 -0.004263739 0.999903679 0.004501255 0.009784270 -0.008759910
1520503193.996197 -0.186597735 -0.024952054 -0.005754915 0.999936342 0.002225113 0.008452114 -0.007145737
1520503194.046199 -0.211423039 -0.032873210 -0.004582617 0.999908507 0.005234334 0.005157123 -0.011360459
1520503194.096202 -0.221170574 -0.038136590 -0.003054960 0.999803007 0.011146272 0.003225923 -0.016102253
1520503194.146203 -0.246171951 -0.050849225 -0.006126593 0.999802530 0.008237006 0.001079113 -0.018053539
1520503194.196205 -0.256464332 -0.058554858 -0.007587105 0.999776006 0.004486733 -0.000432602 -0.020683147
1520503194.246206 -0.283956796 -0.073881045 -0.006739935 0.999769509 0.003434720 -0.001053714 -0.021167256
1520503194.296207 -0.295066029 -0.082422189 -0.005105429 0.999729037 0.003714915 0.000291072 -0.022977823
1520503194.346209 -0.326987267 -0.101456262 -0.006335901 0.999705195 0.002751965 0.001836692 -0.024055423
1520503194.396222 -0.342226893 -0.110748939 -0.006393559 0.999692976 0.002527027 0.002996086 -0.024468562
1520503194.446223 -0.375019759 -0.131571397 -0.002557847 0.999683082 0.002986819 0.003989612 -0.024676798
1520503194.496225 -0.390857458 -0.141611367 0.001097054 0.999686897 0.002141478 0.005363875 -0.024346989
1520503194.546227 -0.426874429 -0.160158366 0.006777817 0.999677300 -0.001645369 0.007999844 -0.024055710
1520503194.596228 -0.442147315 -0.168607607 0.010470393 0.999593556 -0.004891724 0.011942619 -0.025420165
1520503194.646230 -0.482150376 -0.185824990 0.018701138 0.999514043 -0.006564308 0.013543077 -0.027299311
1520503194.696231 -0.497507572 -0.191015273 0.021364219 0.999486327 -0.006545576 0.011104449 -0.029342884
1520503194.746233 -0.539402425 -0.206170097 0.029880319 0.999442160 -0.006423674 0.007494523 -0.031906929
1520503194.796232 -0.557390213 -0.210292071 0.029633986 0.999347508 -0.008353359 0.005262259 -0.034743037
1520503194.846263 -0.600900531 -0.223600909 0.034280743 0.999245465 -0.009418450 0.003900466 -0.037479751
1520503194.896235 -0.619118214 -0.228342161 0.034076314 0.999156892 -0.008243199 0.003315451 -0.040084228
1520503194.946237 -0.639766693 -0.232042387 0.032831021 0.999077320 -0.003223387 0.002969035 -0.042725015
1520503194.996238 -0.708208919 -0.244551435 0.027507879 0.998996437 0.004581506 0.004149306 -0.044362593
1520503195.046240 -0.731110632 -0.248058483 0.025999168 0.998899519 0.009904733 0.007817025 -0.045174148
1520503195.096241 -0.787748873 -0.255235851 0.028240908 0.998878241 0.008692672 0.012152845 -0.044933677
1520503195.146243 -0.825365663 -0.259376377 0.031569675 -0.998803079 -0.000884694 -0.018314095 0.045345444
1520503195.196275 -0.867336869 -0.265085340 0.037944350 0.998685539 -0.005445053 0.022726901 -0.045619771
1520503195.246276 -0.903435469 -0.268783689 0.043525696 0.998571098 -0.004607040 0.025369186 -0.046808347
1520503195.296278 -0.942846000 -0.275119662 0.050460551 0.998543322 -0.001050076 0.026605690 -0.046928875
1520503195.346279 -0.975070417 -0.281430095 0.054151431 -0.998661518 0.000658663 -0.025315905 0.045100138
1520503195.396281 -1.009859800 -0.290171891 0.058904041 0.998693585 -0.000446894 0.025193144 -0.044455830
1520503195.446282 -1.038139701 -0.298614621 0.059636761 0.998592854 0.001446440 0.027073011 -0.045578118
1520503195.496284 -1.069798946 -0.310634643 0.061059929 0.998592973 0.002118166 0.027593106 -0.045235824
1520503195.546286 -1.095340371 -0.322962195 0.058834177 0.998731971 -0.000562688 0.024627604 -0.043906052
1520503195.596316 -1.125418305 -0.338862211 0.058251917 0.998851061 -0.005225522 0.021726634 -0.042393040
1520503195.646318 -1.150680065 -0.354530424 0.054859851 0.998887837 -0.009690743 0.020270452 -0.041452546
1520503195.696320 -1.181355476 -0.372320294 0.054521818 0.998772681 -0.012606446 0.021223556 -0.042939775
1520503195.746321 -1.207686186 -0.388306499 0.053791218 0.998485684 -0.014183016 0.024009336 -0.047422703
1520503195.796323 -1.238258243 -0.404740900 0.057494748 0.997999609 -0.015327521 0.027962264 -0.054589652
1520503195.846325 -1.264809608 -0.417184293 0.062302876 0.997296154 -0.014822029 0.031563655 -0.064687014
1520503195.896326 -1.294668555 -0.427958041 0.070525058 0.996519983 -0.015174475 0.033277761 -0.074902363
1520503195.946328 -1.320246696 -0.436204851 0.076740012 0.996061027 -0.018969579 0.030325137 -0.081136420
1520503195.996348 -1.346871018 -0.443641335 0.084339522 0.995984495 -0.021988763 0.025229182 -0.083036095
1520503196.046349 -1.367600441 -0.447785020 0.089432821 0.995936453 -0.022238761 0.023306929 -0.084100462
1520503196.096351 -1.389582515 -0.452039748 0.094884455 0.995808482 -0.022803914 0.025823105 -0.084726848
1520503196.146352 -1.405738950 -0.453929216 0.097380742 0.995716572 -0.027760791 0.029490422 -0.083115794
1520503196.196354 -1.419361353 -0.454426318 0.099207319 0.995820940 -0.034987591 0.032069411 -0.078026854
1520503196.246358 -1.435953021 -0.455540389 0.102992333 0.996219516 -0.039278712 0.032589301 -0.070298344
1520503196.296357 -1.444438457 -0.452914029 0.102702886 0.996694028 -0.039519195 0.033260033 -0.062714711
1520503196.346359 -1.449581146 -0.449020594 0.100716755 0.997342527 -0.035532735 0.034093786 -0.053694032
1520503196.396340 -1.455722928 -0.445993662 0.099270187 0.998145521 -0.029221766 0.034303755 -0.040925324
1520503196.446424 -1.454270601 -0.440503538 0.093698822 -0.998793662 0.022497624 -0.034616161 0.026587645
1520503196.496343 -1.451107979 -0.435744435 0.089123897 0.999194026 -0.017216697 0.034641545 -0.010720417
1520503196.546345 -1.441937208 -0.430214852 0.083340280 0.999468148 -0.012879459 0.029732564 0.003675600
1520503196.596346 -1.430833459 -0.425242305 0.080561817 0.999693811 -0.004159397 0.019426970 0.014753480
1520503196.646348 -1.414294958 -0.418735474 0.077884063 0.999712527 0.004419461 0.011721179 0.020445906
1520503196.696348 -1.394253969 -0.412278712 0.076303706 0.999625444 0.006411301 0.009338864 0.024914997
1520503196.746351 -1.373043776 -0.407311052 0.076910235 0.999456048 0.000894883 0.012281545 0.030595299
1520503196.796353 -1.345958829 -0.401897401 0.074593261 0.999063492 -0.007511683 0.018384505 0.038440309
1520503196.846375 -1.314729571 -0.395898491 0.071369022 0.998309314 -0.014083147 0.025369931 0.050364107
1520503196.896376 -1.280370116 -0.389781803 0.068954438 0.997298181 -0.016467066 0.032788169 0.063641734
1520503196.946378 -1.241586804 -0.381590039 0.063563503 0.996220231 -0.016748153 0.039443865 0.075558111
1520503196.996379 -1.199550986 -0.373010546 0.057700902 0.995283902 -0.018051157 0.041759949 0.085675448
1520503197.046381 -1.155507088 -0.365734547 0.054167047 0.994663954 -0.018947780 0.040589735 0.092936091
1520503197.096383 -1.110366940 -0.357320994 0.049994037 0.994641721 -0.018132385 0.036025796 0.095190518
1520503197.146384 -1.065560222 -0.348894715 0.047918636 0.994799733 -0.012469959 0.028827431 0.096887141
1520503197.196386 -1.021592140 -0.342779636 0.049661737 0.994693518 -0.006173329 0.022029668 0.100306876
1520503197.246338 -0.978196084 -0.335646629 0.050282191 0.994248629 -0.003127935 0.019091632 0.105335027
1520503197.296339 -0.935543776 -0.329779714 0.051284831 0.993416369 -0.004341324 0.021313652 0.112476282
1520503197.346341 -0.893545747 -0.325421035 0.051411316 0.992221534 -0.008826421 0.024846934 0.121659942
1520503197.396343 -0.851752758 -0.326849431 0.051826995 0.990899503 -0.015043306 0.028873159 0.130607560
1520503197.446345 -0.809332669 -0.326082379 0.046365663 0.989396691 -0.020279318 0.031155756 0.140400365
1520503197.496346 -0.766096354 -0.326823026 0.038060822 0.987662256 -0.022534184 0.034002990 0.151193157
1520503197.546348 -0.722137332 -0.331891090 0.029515458 0.985704422 -0.021011040 0.036843359 0.163058370
1520503197.596349 -0.676322043 -0.334444642 0.017477309 0.983706713 -0.016984828 0.039356835 0.174596071
1520503197.646308 -0.628858745 -0.337524980 0.005876506 0.981509745 -0.013737255 0.040885530 0.186489776
1520503197.696309 -0.580462813 -0.344725788 -0.001535107 0.978908777 -0.012622604 0.040470064 0.199851409
1520503197.746311 -0.529646099 -0.348162144 -0.009221587 0.975979030 -0.010842978 0.040968623 0.213702962
1520503197.796312 -0.478335321 -0.351758659 -0.013117225 0.973261952 -0.006280088 0.039832737 0.226131007
1520503197.846314 -0.428520113 -0.358769506 -0.010387836 0.970757782 -0.003207370 0.037977800 0.237016320
1520503197.896318 -0.378404170 -0.360942960 -0.006093081 -0.968308747 0.005741131 -0.035643056 -0.247133285
1520503197.946317 -0.330252886 -0.364903212 0.002108412 0.966470599 -0.013683639 0.034580112 0.254070103
1520503197.996318 -0.282697886 -0.367522538 0.007500897 0.965569675 -0.023582391 0.033436410 0.256907016
1520503198.046316 -0.236190721 -0.371030688 0.009993502 0.965111494 -0.033452582 0.028671471 0.258105993
1520503198.096317 -0.190578192 -0.375014365 0.008883879 0.965008914 -0.041855946 0.023610102 0.257775933
1520503198.146319 -0.146586552 -0.384023905 0.008755401 0.965081036 -0.046888877 0.021881705 0.256790340
1520503198.196320 -0.101974294 -0.386759102 0.003029619 0.965453148 -0.049886320 0.024272852 0.254602700
1520503198.246322 -0.057938091 -0.388617516 -0.002313081 0.966036320 -0.053319003 0.029143978 0.251160353
1520503198.296323 -0.016193921 -0.393021584 -0.003539648 0.966887474 -0.057069119 0.032139141 0.246655449
1520503198.346325 0.025008174 -0.393053889 -0.005925450 0.968019485 -0.060684167 0.035934139 0.240758196
1520503198.396327 0.065308928 -0.392169148 -0.005865295 0.969716370 -0.062383130 0.040065672 0.232708544
1520503198.446240 0.105353720 -0.391057581 -0.004729186 0.972678423 -0.057077713 0.037742056 0.221843213
1520503198.496242 0.142835334 -0.396611840 -0.002169892 0.976309419 -0.047739685 0.034890741 0.208143160
1520503198.546243 0.180981904 -0.398362905 -0.004675400 0.978731155 -0.042420465 0.032558691 0.198055327
1520503198.596245 0.218616948 -0.398798943 -0.008580400 0.979130864 -0.037643090 0.031614512 0.197196439
1520503198.646246 0.254964888 -0.401233524 -0.012432329 0.978634477 -0.032834090 0.035151634 0.199902311
1520503198.696248 0.293713033 -0.402538806 -0.020851310 0.978609502 -0.030257290 0.038347185 0.199843884
1520503198.746250 0.333914429 -0.406385392 -0.031091893 0.979386091 -0.029286189 0.039760508 0.195868254
1520503198.796251 0.374772489 -0.415520698 -0.040159572 0.980544865 -0.029924076 0.039209627 0.189997539
1520503198.846253 0.418743283 -0.423494488 -0.050925665 0.981559992 -0.033500154 0.037684262 0.184384778
1520503198.896279 0.463770509 -0.431879401 -0.059773907 0.982258320 -0.037310299 0.036646444 0.180093259
1520503198.946282 0.508303344 -0.442367017 -0.064378306 0.982535601 -0.040090133 0.032874700 0.178706095
1520503198.996283 0.555618882 -0.448821992 -0.068369538 0.981763721 -0.041483358 0.027917249 0.183411539
1520503199.046285 0.602759540 -0.452294707 -0.068529941 0.980548561 -0.039522152 0.022449462 0.190941483
1520503199.096285 0.649265349 -0.456058949 -0.064533554 0.978743732 -0.038870849 0.016517809 0.200691402
1520503199.146287 0.696041346 -0.456611127 -0.060758054 0.977134705 -0.039357357 0.017100871 0.208246157
1520503199.196289 0.741750240 -0.456642985 -0.056761600 0.975804090 -0.039918981 0.018230278 0.214197293
1520503199.246291 0.785110354 -0.459909141 -0.052967872 0.974843204 -0.043308280 0.016638469 0.218009681
1520503199.296332 0.829540730 -0.461952746 -0.053724922 0.974414587 -0.050841112 0.012105254 0.218597606
1520503199.346334 0.873376429 -0.463686615 -0.056862615 0.974366665 -0.057900045 0.009709110 0.217170119
1520503199.396335 0.914994657 -0.466188669 -0.059878610 0.974592984 -0.062306430 0.010975095 0.214862749
1520503199.446337 0.957169533 -0.465889633 -0.063969634 -0.974955857 0.065792419 -0.014373794 -0.211957529
1520503199.496338 0.996292889 -0.463838041 -0.066149414 0.975846887 -0.068230443 0.018169217 0.206730440
1520503199.546340 1.033617616 -0.461245209 -0.066640526 0.976747572 -0.071397550 0.016590917 0.201473057
1520503199.596372 1.069847941 -0.457651496 -0.066663809 0.977907658 -0.071200557 0.013349338 0.196084321
1520503199.646343 1.106204987 -0.454868376 -0.067493737 0.979444861 -0.064533778 0.013141194 0.190657914
1520503199.696293 1.141546011 -0.457025081 -0.069678023 0.981564522 -0.059606392 0.016721081 0.180827379
1520503199.746295 1.175736547 -0.461151779 -0.070399612 0.983074427 -0.062991619 0.019954735 0.170875922
1520503199.796296 1.207386255 -0.464355230 -0.068791077 0.983230412 -0.069553442 0.018546447 0.167559832
1520503199.846298 1.236958861 -0.467136860 -0.067958191 0.982863426 -0.073164918 0.016256060 0.168410733
1520503199.896299 1.265650153 -0.471556932 -0.070005417 0.982726693 -0.074055083 0.014738555 0.168958515
1520503199.946301 1.293718576 -0.476751536 -0.075009853 0.983163714 -0.073245876 0.013516228 0.166857556
1520503199.996303 1.321765304 -0.483350545 -0.082470961 0.983974397 -0.071176745 0.012449563 0.163013160
1520503200.046304 1.349227309 -0.490393341 -0.090682745 0.984474361 -0.068982221 0.010287363 0.161077321
1520503200.096294 1.376096129 -0.497956306 -0.099082880 0.984496593 -0.068072841 0.009494520 0.161377043
1520503200.146295 1.400757432 -0.503017187 -0.105473235 0.984139383 -0.065352954 0.011157743 0.164542854
1520503200.196298 1.422379017 -0.504811227 -0.108624764 -0.983809829 0.060565352 -0.012667511 -0.168195441
1520503200.246299 1.441712856 -0.504987299 -0.109587424 -0.983553410 0.058037773 -0.012073046 -0.170612857
1520503200.296300 1.461461663 -0.502976775 -0.109261900 0.983538687 -0.058920603 0.011778397 0.170415252
1520503200.346303 1.476961851 -0.496553242 -0.106743991 0.983535469 -0.060969960 0.009414626 0.169859260
1520503200.396303 1.490077019 -0.486961544 -0.104407772 0.983868837 -0.062499560 0.007475771 0.167451441
1520503200.446305 1.500967026 -0.472127408 -0.102637224 -0.984286189 0.064429775 -0.004754921 -0.164337680
1520503200.496350 1.511744976 -0.458894283 -0.103278734 0.984985590 -0.064665340 0.004223756 0.160012469
1520503200.546353 1.519841909 -0.440375626 -0.104064919 0.986005008 -0.063376926 0.004919768 0.154121131
1520503200.596354 1.526986480 -0.419294864 -0.105843827 0.986881733 -0.060170185 0.004156033 0.149755806
1520503200.646355 1.533488631 -0.395161569 -0.109154373 0.987779915 -0.053188238 0.004792950 0.146420598
1520503200.696356 1.538506746 -0.368642092 -0.112627827 0.988600433 -0.042535886 0.006570245 0.144280344
1520503200.746358 1.542881131 -0.339847922 -0.118146881 0.989344239 -0.031800993 0.015453749 0.141237125
1520503200.796360 1.545741677 -0.309988707 -0.124309085 -0.989996314 0.023870965 -0.027554547 -0.136302307
1520503200.846361 1.546395063 -0.278473318 -0.130290017 -0.990330219 0.019953638 -0.030895134 -0.133766368
1520503200.896372 1.550144315 -0.245238841 -0.137089536 0.990253508 -0.015671231 0.029296599 0.135255530
1520503200.946374 1.550292492 -0.211172879 -0.140783682 0.990093410 -0.008064754 0.028014958 0.137350574
1520503200.996375 1.548656106 -0.176115841 -0.144580513 0.989492834 0.000986594 0.031059343 0.141203150
1520503201.046376 1.546438336 -0.141282856 -0.148758411 0.988938630 0.006342227 0.033001855 0.144468486
1520503201.096378 1.543780565 -0.107012928 -0.153246254 0.988863647 0.006895556 0.030278109 0.145548955
1520503201.146380 1.539363503 -0.072231717 -0.156750813 0.989247143 0.005380239 0.025889512 0.143843696
1520503201.196464 1.533328772 -0.038151667 -0.160781696 0.989734113 0.005098072 0.022915257 0.140980259
1520503201.246383 1.525686383 -0.004270678 -0.164481759 0.990125537 0.006507764 0.021799663 0.138325438
1520503201.296384 1.516587615 0.030046485 -0.167497858 0.990308225 0.007422993 0.020307839 0.137194261
1520503201.346484 1.507032275 0.065253630 -0.169398710 0.990172744 0.005607759 0.019238077 0.138406724
1520503201.396486 1.496020675 0.098447725 -0.171567008 -0.990020871 -0.000199497 -0.022724766 -0.139076516
1520503201.446487 1.485086322 0.131813839 -0.173034027 0.989434659 -0.003138809 0.020693364 0.143461004
1520503201.496489 1.474346280 0.164416313 -0.173357055 0.988902569 -0.001790868 0.019322924 0.147293329
1520503201.546490 1.463952422 0.197237149 -0.172236055 0.989109576 0.001011836 0.016808348 0.146214634
1520503201.596492 1.454520226 0.231166571 -0.168688580 -0.989680171 -0.005188831 -0.013326901 -0.142578393
1520503201.646493 1.446736097 0.265647918 -0.165080592 0.990080476 0.005524104 0.015907170 0.139489084
1520503201.696496 1.439329147 0.298112839 -0.162337348 0.990538478 -0.000681305 0.022401754 0.135393217
1520503201.746531 1.432757854 0.329620093 -0.160847127 0.991336882 -0.009075051 0.026271909 0.128369197
1520503201.796533 1.426493287 0.360646456 -0.160319448 0.992680967 -0.013506495 0.027371787 0.116846010
1520503201.846534 1.421413422 0.392185926 -0.161062792 0.994201958 -0.013140175 0.027815018 0.103034966
1520503201.896536 1.416236997 0.422310263 -0.163068503 0.995453596 -0.012110339 0.027345501 0.090430304
1520503201.946538 1.411701798 0.450647980 -0.166058421 0.996494472 -0.013875814 0.025469953 0.078469820
1520503201.996539 1.406898618 0.478117466 -0.169536427 0.997467816 -0.016755162 0.025161918 0.064375415
1520503202.046541 1.401852846 0.504585266 -0.173703566 0.998411834 -0.016228653 0.024984077 0.047815349
1520503202.096543 1.393966198 0.530477345 -0.177966192 0.999193966 -0.011754806 0.024661629 0.029412238
1520503202.146538 1.385076642 0.554967105 -0.182323158 0.999638319 -0.005113600 0.023675503 0.011686123
1520503202.196540 1.375474215 0.577951670 -0.185459673 0.999711752 0.001972336 0.023816785 -0.002334365
1520503202.246542 1.366074443 0.599103868 -0.187590361 0.999581397 0.006414782 0.025494691 -0.012078966
1520503202.296543 1.354019284 0.618041575 -0.187656239 0.999430299 0.008144605 0.027514370 -0.017770760
1520503202.346544 1.340823293 0.634651721 -0.186554790 0.999246836 0.008886429 0.030583952 -0.022168707
1520503202.396547 1.326499462 0.649002492 -0.184868872 0.999089718 0.008782116 0.032388180 -0.026339896
1520503202.446547 1.311955214 0.662608564 -0.183624923 0.998982310 0.007059327 0.032233335 -0.030750155
1520503202.496549 1.295007944 0.673830330 -0.181649253 0.998872042 0.004256231 0.031205432 -0.035536543
1520503202.546588 1.277333736 0.683129787 -0.180499583 0.998931170 0.003886159 0.026038958 -0.037993420
1520503202.596590 1.258700609 0.690841734 -0.180866346 0.998983324 0.008637120 0.020759204 -0.039075226
1520503202.646591 1.239550114 0.697878361 -0.180778965 0.998897433 0.012923324 0.019512299 -0.040697727
1520503202.696593 1.220079422 0.703438699 -0.177886382 0.998920023 0.012002193 0.017189458 -0.041465282
1520503202.746595 1.201174855 0.706979454 -0.173490062 0.998998165 0.006510064 0.016803928 -0.040963918
1520503202.796596 1.182882190 0.707077086 -0.169526145 0.999108195 -0.002683426 0.018235853 -0.037988923
1520503202.846598 1.164980650 0.703090668 -0.166941762 0.999149680 -0.011335752 0.018836744 -0.034881514
1520503202.896599 1.148345828 0.696511030 -0.163796157 0.999217927 -0.014279437 0.017460382 -0.032478593
1520503202.946632 1.132315278 0.686323047 -0.161483154 0.999300361 -0.013729959 0.015579635 -0.031106204
1520503202.996633 1.116639733 0.671546340 -0.160927907 0.999355793 -0.014754641 0.014613978 -0.029272614
1520503203.046635 1.100075722 0.651448905 -0.161317304 0.999351501 -0.018995544 0.015194906 -0.026549699
1520503203.096636 1.083600402 0.627736926 -0.162914261 0.999294996 -0.024484448 0.016641628 -0.023090178
1520503203.146638 1.067001104 0.600194037 -0.164836496 0.999328494 -0.026992744 0.016160479 -0.018781893
1520503203.196640 1.050154209 0.570006132 -0.165573388 0.999459803 -0.025057003 0.014928518 -0.015148592
1520503203.246641 1.032138467 0.536071897 -0.162979245 0.999482453 -0.022908997 0.017145798 -0.014700045
1520503203.296643 1.013195276 0.501142323 -0.158229664 -0.999288738 0.025297901 -0.021661958 0.017688580
1520503203.346644 0.993648589 0.464887112 -0.151140690 0.999041140 -0.027903300 0.025081899 -0.022565663
1520503203.396590 0.972603500 0.427733213 -0.142969340 0.998820961 -0.023496067 0.029773017 -0.030302912
1520503203.446592 0.950201988 0.390662193 -0.133180603 0.998627365 -0.013848606 0.032307535 -0.038831215
1520503203.496593 0.927208424 0.354139030 -0.121610329 0.998369336 -0.009583464 0.032221682 -0.046137109
1520503203.546595 0.904136896 0.318292469 -0.109238163 0.997899890 -0.015590705 0.033041093 -0.053488452
1520503203.596596 0.881383359 0.283029586 -0.098035544 0.997246325 -0.026852747 0.033369999 -0.060541619
1520503203.646598 0.859007239 0.247885585 -0.089474916 0.996792614 -0.035575129 0.029576791 -0.065300986
1520503203.696600 0.838607669 0.213183671 -0.083366595 0.996477842 -0.039204724 0.027007792 -0.069033071
1520503203.746602 0.816797435 0.177310199 -0.081289738 0.996295750 -0.040751521 0.025945032 -0.071140818
1520503203.796540 0.795152068 0.140204281 -0.081811324 0.996192932 -0.042620353 0.026769370 -0.071179412
1520503203.846543 0.773595333 0.101148099 -0.083915882 0.996202350 -0.045753039 0.028765297 -0.068264917
1520503203.896544 0.752803087 0.059486128 -0.086839303 0.996375382 -0.049110789 0.030170212 -0.062563390
1520503203.946546 0.731809139 0.018678367 -0.088700674 0.996510327 -0.052610137 0.031753711 -0.056490261
1520503203.996547 0.711626291 -0.021941356 -0.088952467 0.996661842 -0.055457298 0.032692317 -0.050210107
1520503204.046548 0.692167044 -0.061521854 -0.086527847 0.997159421 -0.053063389 0.032081753 -0.042758584
1520503204.096551 0.673624575 -0.099616580 -0.080990776 0.997766256 -0.046592657 0.031038314 -0.036445696
1520503204.146551 0.657473683 -0.136533409 -0.073164560 0.998322070 -0.042805817 0.026498044 -0.028612135
1520503204.196463 0.642929196 -0.171914414 -0.064353578 0.998575568 -0.040604133 0.026965639 -0.021706846
1520503204.246466 0.628867209 -0.207237676 -0.057209872 0.998469412 -0.040751509 0.033366568 -0.016881058
1520503204.296467 0.614415348 -0.245057270 -0.054008979 0.998077095 -0.044022534 0.041440230 -0.013671470
1520503204.346499 0.599551797 -0.283384889 -0.054178651 0.997716188 -0.047333393 0.047049139 -0.010407527
1520503204.396470 0.584721923 -0.323541611 -0.057647984 0.997702718 -0.046950914 0.048452515 -0.006111401
1520503204.446471 0.570270777 -0.365765512 -0.063165516 0.997876465 -0.044423338 0.047625653 -0.001027107
1520503204.496472 0.555986047 -0.410593361 -0.068679094 0.997897983 -0.043467846 0.048024062 0.001990845
1520503204.546475 0.541741490 -0.454649508 -0.070063859 0.997575283 -0.046937723 0.051385194 0.000181975
1520503204.596457 0.527904928 -0.498380274 -0.067424700 0.997155130 -0.053914133 0.052573189 -0.003323178
1520503204.646459 0.514539897 -0.540594459 -0.061027747 0.997079909 -0.055177528 0.052096650 -0.008546099
1520503204.696460 0.501053274 -0.580817223 -0.051328402 0.997200012 -0.051874056 0.052356523 -0.012651497
1520503204.746462 0.486013472 -0.619037211 -0.041624818 0.996767879 -0.053519093 0.057512049 -0.016793331
1520503204.796464 0.469958007 -0.654785216 -0.031073824 0.996124566 -0.060184214 0.060277261 -0.021918306
1520503204.846465 0.453930706 -0.687513530 -0.020211674 0.996075034 -0.066123262 0.053606875 -0.024261421
1520503204.896467 0.438092083 -0.719097078 -0.011534579 0.996377468 -0.067156531 0.046320766 -0.024008447
1520503204.946468 0.422220439 -0.750679195 -0.007030642 0.996570766 -0.066983230 0.044183921 -0.020194748
1520503204.996545 0.406311870 -0.782662630 -0.005720181 0.996307850 -0.070728175 0.046634365 -0.013910090
1520503205.046546 0.389874607 -0.814054608 -0.006345864 0.995769382 -0.077462442 0.048969924 -0.006707363
1520503205.096548 0.372226983 -0.845199466 -0.008647335 0.995349765 -0.082103424 0.050364695 -0.001198572
1520503205.146550 0.353518933 -0.874383390 -0.011953852 0.995519936 -0.080271557 0.049892485 0.002693242
1520503205.196551 0.333841532 -0.902248442 -0.015319181 0.995809257 -0.076856703 0.049171712 0.006264495
1520503205.246553 0.313802034 -0.929023325 -0.017864032 0.995699644 -0.077029884 0.049779736 0.013065546
1520503205.296555 0.293649107 -0.952891707 -0.018563518 0.995361507 -0.075753368 0.056084398 0.019277388
1520503205.346556 0.274046600 -0.973431110 -0.017827397 0.995289683 -0.073280431 0.060117569 0.020356603
1520503205.396737 0.255090922 -0.989914119 -0.015388196 0.995413601 -0.074503168 0.056754664 0.019491460
1520503205.446738 0.236877427 -1.002026200 -0.012390791 0.995453477 -0.076285675 0.053292897 0.020316331
1520503205.496741 0.219125971 -1.009157419 -0.010033625 0.995467842 -0.075984657 0.051881701 0.024051290
1520503205.546741 0.202673644 -1.012129307 -0.008036165 -0.995319188 0.074816443 -0.053176638 -0.030242162
1520503205.596744 0.187014967 -1.010028601 -0.006672026 0.995002627 -0.075394876 0.054115184 0.036837615
1520503205.646745 0.172681749 -1.004324794 -0.005594107 0.994743705 -0.077057891 0.053287726 0.041322209
1520503205.696747 0.159310207 -0.994588614 -0.005020060 0.994867742 -0.077141114 0.049575280 0.042775586
1520503205.746751 0.146527424 -0.980325639 -0.004361195 0.995342553 -0.074357919 0.046841461 0.039624210
1520503205.796750 0.133822203 -0.961431563 -0.002890814 0.995764554 -0.072998874 0.044797618 0.033426501
1520503205.847033 0.120071702 -0.937592447 -0.000836076 0.995883882 -0.075245060 0.043373361 0.025929047
1520503205.897035 0.106571108 -0.912246883 0.001733009 0.995814860 -0.078573957 0.042685349 0.018892154
1520503205.947113 0.092797741 -0.885070086 0.003867524 0.995787561 -0.080174193 0.042509314 0.013125224
1520503205.997038 0.078971900 -0.856695652 0.005139389 0.995824516 -0.079541542 0.044018380 0.008314352
1520503206.047040 0.065664656 -0.829018354 0.006038023 -0.995985925 0.077295512 -0.044820298 -0.005356092
1520503206.097041 0.052317992 -0.799105048 0.005995515 0.996089876 -0.074295536 0.047749668 0.002261393
1520503206.147043 0.039664343 -0.770005286 0.005946642 0.996333957 -0.069503546 0.049860261 -0.001415915
1520503206.197044 0.027492732 -0.739632845 0.005887583 0.996879101 -0.060574949 0.050408754 -0.004664371
1520503206.246758 0.015641881 -0.708531737 0.006198539 0.997397542 -0.053446248 0.048137717 -0.004951356
1520503206.296759 0.003998628 -0.676455081 0.006653856 0.997437239 -0.054735765 0.045958117 -0.003296532
1520503206.346761 -0.007007229 -0.644315660 0.007485653 0.997109532 -0.060489379 0.045918044 -0.002286870
1520503206.396763 -0.019007053 -0.610033333 0.007048635 0.996870577 -0.063451506 0.047106232 -0.001983149
1520503206.446764 -0.031991072 -0.574037433 0.005756319 0.996837020 -0.062606290 0.048934806 -0.001362011
1520503206.496766 -0.045852460 -0.536118090 0.003977118 0.996702135 -0.063293539 0.050771166 -0.001056803
1520503206.546767 -0.060376506 -0.497063786 0.001229360 0.996401846 -0.067724660 0.050954688 -0.000621484
1520503206.596769 -0.075436167 -0.455796003 -0.001928059 0.996002913 -0.074438818 0.049325220 0.002054303
1520503206.646566 -0.090263985 -0.414637655 -0.006586236 0.995695055 -0.078143246 0.049426116 0.006489568
1520503206.696568 -0.104440391 -0.371733576 -0.011357108 0.995954037 -0.072593093 0.051507726 0.012364721
1520503206.746570 -0.118031859 -0.327192754 -0.015143586 0.996610463 -0.060555521 0.053626888 0.014990846
1520503206.796571 -0.130562916 -0.283497989 -0.019154277 0.997352302 -0.049079828 0.052140061 0.012689917
1520503206.846573 -0.141422391 -0.239499971 -0.020344643 0.998146832 -0.038669258 0.045905847 0.010018097
1520503206.896575 -0.150652260 -0.197049096 -0.021349516 0.998470068 -0.033916973 0.042666610 0.009316997
1520503206.946577 -0.158265635 -0.156237468 -0.022832235 0.998226643 -0.037298352 0.045687962 0.008064901
1520503206.996578 -0.165332183 -0.115906157 -0.024331549 0.997739851 -0.044844557 0.049894575 0.003835247
1520503207.046496 -0.170484856 -0.074639559 -0.024813836 0.997371495 -0.050269712 0.052019197 -0.004136603
1520503207.096497 -0.174081475 -0.033062845 -0.025220426 0.996970236 -0.054016970 0.054004010 -0.014702716
1520503207.146499 -0.176340982 0.007799380 -0.026222076 0.996067286 -0.058936566 0.060323711 -0.027157368
1520503207.196500 -0.176404461 0.047924779 -0.027261840 -0.995052934 0.065935224 -0.064605884 0.036718134
1520503207.246501 -0.177750275 0.088977277 -0.029113868 0.994394362 -0.070913464 0.065903760 -0.042518366
1520503207.296503 -0.176845253 0.130920351 -0.029508784 0.994239628 -0.069610886 0.065093726 -0.049038284
1520503207.346505 -0.173931405 0.172292098 -0.029731303 0.995065272 -0.059442300 0.059453882 -0.052697819
1520503207.396506 -0.169166639 0.212768063 -0.029223122 0.995993018 -0.043395899 0.058459442 -0.051936164
1520503207.446541 -0.163561106 0.251821280 -0.028515913 0.996360540 -0.030464269 0.063623920 -0.047850270
1520503207.496542 -0.158268660 0.285659552 -0.028433785 0.996449769 -0.026640605 0.066068679 -0.044868141
1520503207.546544 -0.154662877 0.318691373 -0.029046293 0.996622801 -0.030002974 0.061840333 -0.044930551
1520503207.596545 -0.152737543 0.349659085 -0.031149480 0.996924102 -0.033416320 0.053134680 -0.046929251
1520503207.646547 -0.151909530 0.378913671 -0.034367081 0.997382641 -0.032119207 0.044328425 -0.047237754
1520503207.696548 -0.151851490 0.405521214 -0.037809595 0.997744143 -0.026345782 0.041820578 -0.045428481
1520503207.746550 -0.152323723 0.433567852 -0.039732672 -0.997984707 0.021763889 -0.043237839 0.041030861
1520503207.796551 -0.154152513 0.461134255 -0.040256072 0.998100877 -0.022970680 0.044464827 -0.035914153
1520503207.846659 -0.157544047 0.489942014 -0.039917774 0.998121440 -0.028843431 0.042539012 -0.033349320
1520503207.896662 -0.162774816 0.519128084 -0.040357515 0.998110712 -0.036311120 0.035810798 -0.034266856
1520503207.946662 -0.170000076 0.547932744 -0.042648923 0.997951388 -0.041766539 0.029585887 -0.038383938
1520503207.996665 -0.178521276 0.575332284 -0.046144027 0.997947454 -0.039192032 0.026937572 -0.042886797
1520503208.046666 -0.186705232 0.601078391 -0.048550788 0.998349845 -0.029366903 0.022470584 -0.043935362
1520503208.096668 -0.195289403 0.621620476 -0.049206261 0.998431861 -0.022871930 0.021978205 -0.046128076
1520503208.146668 -0.203649834 0.638941467 -0.048024081 0.998266220 -0.024208343 0.020629698 -0.049528275
1520503208.196671 -0.211503938 0.650209904 -0.045556724 0.998044789 -0.028473055 0.021239558 -0.051427096
1520503208.246671 -0.219590023 0.656044722 -0.042771619 0.997888684 -0.030581014 0.026110932 -0.051003478
1520503208.296732 -0.228418261 0.657420754 -0.040467329 0.997891128 -0.028679363 0.031066060 -0.049251467
1520503208.346735 -0.241024971 0.655256450 -0.037246086 0.997787356 -0.026469421 0.034740739 -0.050128859
1520503208.396736 -0.256105363 0.649451911 -0.036582112 0.997607112 -0.027398054 0.034577381 -0.053234924
1520503208.446738 -0.274535865 0.639734447 -0.037664238 0.997313499 -0.031375371 0.032402594 -0.057719935
1520503208.496739 -0.295512199 0.626707375 -0.040148482 0.996896386 -0.034514640 0.032210134 -0.062999740
1520503208.546741 -0.318701982 0.611215353 -0.043132212 0.996395350 -0.035170242 0.035543289 -0.068528831
1520503208.596742 -0.343659729 0.593724847 -0.045722164 0.996033669 -0.033036653 0.040106859 -0.072228454
1520503208.646744 -0.370833069 0.577547491 -0.044242062 0.995661020 -0.030762708 0.046212588 -0.074680813
1520503208.696782 -0.398941934 0.560185373 -0.041471213 0.995085597 -0.030016026 0.053562753 -0.077683806
1520503208.746783 -0.428025305 0.543562114 -0.035514943 0.994604290 -0.030382806 0.055713456 -0.082069010
1520503208.796785 -0.457392275 0.527659714 -0.027627284 0.994373798 -0.031045925 0.051764328 -0.087048754
1520503208.846786 -0.486892998 0.511576056 -0.019468136 0.993897438 -0.032286126 0.048400499 -0.093718044
1520503208.896788 -0.515523016 0.493860930 -0.011368467 0.993100405 -0.035390258 0.046681974 -0.101587653
1520503208.946790 -0.545440793 0.474589586 -0.008107905 0.992193401 -0.039874796 0.044572394 -0.109433755
1520503208.996791 -0.576265991 0.453413785 -0.007583268 0.991499543 -0.043453440 0.042339329 -0.115100019
1520503209.046793 -0.608027935 0.430548877 -0.009256077 0.991199613 -0.044241183 0.041288927 -0.117734365
1520503209.096786 -0.640714526 0.405839324 -0.011984336 0.991255701 -0.042451642 0.041615315 -0.117805578
1520503209.146774 -0.674133301 0.378189951 -0.013198397 0.991511226 -0.040834319 0.043062638 -0.115687959
1520503209.196775 -0.706930399 0.350695133 -0.012063576 0.991536021 -0.040962443 0.045415226 -0.114524968
1520503209.246778 -0.738171697 0.322865188 -0.006818166 0.991145790 -0.044674091 0.051054921 -0.114139102
1520503209.296778 -0.768920004 0.294462144 0.000810968 0.990453362 -0.049469873 0.060097836 -0.113768511
1520503209.346780 -0.797919452 0.266572297 0.010546553 0.990534425 -0.049505316 0.062551543 -0.111705340
1520503209.396781 -0.826328695 0.237854064 0.020729149 0.991662145 -0.045866184 0.058156557 -0.105453268
1520503209.446783 -0.850851238 0.208685458 0.028233442 0.992872655 -0.043965634 0.054638360 -0.096362084
1520503209.496751 -0.872295678 0.179299131 0.034418344 0.993700624 -0.043144297 0.054820128 -0.087707072
1520503209.546753 -0.891595304 0.148469537 0.038390674 0.994217098 -0.041878868 0.057312533 -0.080584973
1520503209.596755 -0.909424961 0.115308113 0.039071877 0.994599521 -0.041709032 0.060529511 -0.073269464
1520503209.646756 -0.926946580 0.078629360 0.036783788 0.994841814 -0.043696262 0.063373499 -0.066063352
1520503209.696758 -0.943228245 0.041043121 0.031434059 0.994719505 -0.045812313 0.067098804 -0.062706605
1520503209.746758 -0.959669173 0.001750075 0.025641816 0.994655430 -0.046436496 0.067664452 -0.062656417
1520503209.796761 -0.975815892 -0.037910242 0.021465156 0.994712055 -0.044510223 0.066112429 -0.064776450
1520503209.846761 -0.991353631 -0.077797264 0.020860845 0.994684279 -0.040366106 0.067707688 -0.066253945
1520503209.896708 -1.006049991 -0.118532762 0.022872202 0.994004369 -0.036530238 0.075051636 -0.070627168
1520503209.946709 -1.019214749 -0.155749530 0.030721553 0.993439436 -0.033072107 0.078180559 -0.076630324
1520503209.996711 -1.031494975 -0.191854492 0.041421831 0.993036985 -0.033974666 0.078054897 -0.081429243
1520503210.046712 -1.042711973 -0.226516649 0.053281687 0.992711365 -0.041083027 0.076803654 -0.083293036
1520503210.096714 -1.051743746 -0.261074007 0.063763984 0.992856860 -0.051025700 0.072294302 -0.080032773
1520503210.146715 -1.058480024 -0.297555178 0.070028402 0.993052602 -0.057529759 0.070466116 -0.074642010
1520503210.196718 -1.063026309 -0.333262503 0.073824368 -0.993206322 0.060825247 -0.069866218 0.070429809
1520503210.246719 -1.066263914 -0.370577335 0.074260548 0.993386447 -0.062861830 0.069314457 -0.066537507
1520503210.296691 -1.067949057 -0.408561975 0.073083162 0.993608356 -0.064694703 0.069491275 -0.061057780
1520503210.346693 -1.068256497 -0.448111027 0.070409909 0.993949771 -0.066356711 0.070016906 -0.052520201
1520503210.396694 -1.066740632 -0.488602310 0.067102551 0.994478941 -0.068654791 0.068221994 -0.040546581
1520503210.446695 -1.063467503 -0.529013634 0.063695394 0.994816482 -0.071050778 0.066292353 -0.029955538
1520503210.496697 -1.057348609 -0.569486737 0.060750257 0.995504320 -0.072899178 0.058002729 -0.017103141
1520503210.546698 -1.048246384 -0.608851969 0.057357028 0.996401966 -0.069383942 0.048673287 0.000188324
1520503210.596700 -1.034738898 -0.645209551 0.057580400 0.996866167 -0.063804045 0.043269884 0.017739253
1520503210.646701 -1.017691851 -0.679450750 0.058622599 0.996577501 -0.062432598 0.039537448 0.037043329
1520503210.696763 -0.997963727 -0.710310578 0.060420413 0.995717108 -0.061099418 0.040888034 0.056058165
1520503210.746721 -0.976558268 -0.737979472 0.062243011 0.994740069 -0.056783669 0.044170752 0.072916292
1520503210.796722 -0.954290569 -0.764010191 0.062750995 0.993640780 -0.053240951 0.048049081 0.086802885
1520503210.846724 -0.930477023 -0.790881693 0.060633354 0.992729962 -0.053677261 0.050490249 0.095166840
1520503210.896725 -0.905314922 -0.817862451 0.055786472 0.992224753 -0.056096666 0.049043145 0.099689983
1520503210.946727 -0.879002035 -0.844065487 0.048995465 0.992069840 -0.057051055 0.044611979 0.102725156
1520503210.996728 -0.852016389 -0.868835092 0.041814320 0.992282629 -0.055827867 0.043328736 0.101887889
1520503211.046730 -0.824490070 -0.892273366 0.035433672 0.992785871 -0.056053061 0.048759032 0.094111189
1520503211.096731 -0.795337796 -0.913749576 0.032374762 0.993652642 -0.058128111 0.052624002 0.080661885
1520503211.146911 -0.764990628 -0.933212876 0.029971099 0.995023608 -0.054560516 0.051841058 0.065297484
1520503211.196913 -0.733350992 -0.950291932 0.028951371 0.996464491 -0.044894777 0.047828861 0.052491449
1520503211.246914 -0.701338768 -0.964980245 0.030034915 0.997263908 -0.038721219 0.047108844 0.041786715
1520503211.296916 -0.670719981 -0.976214468 0.033834770 0.997663140 -0.039089680 0.046858206 0.030733524
1520503211.346917 -0.641365469 -0.983699679 0.038878191 0.997791290 -0.043164980 0.046627354 0.019372592
1520503211.396919 -0.611650050 -0.985692680 0.045185395 0.997716427 -0.048896074 0.045351129 0.010700034
1520503211.446921 -0.584016204 -0.985995650 0.047587495 0.997447729 -0.055309065 0.044734143 0.006153587
1520503211.496922 -0.557583451 -0.983272970 0.047189474 0.997055769 -0.061227351 0.045749690 0.006170717
1520503211.547408 -0.532331705 -0.976213276 0.044833425 0.996613562 -0.064928778 0.049608722 0.009200192
1520503211.597409 -0.508886337 -0.964767456 0.042290490 0.996366858 -0.065974332 0.052620277 0.011473469
1520503211.647411 -0.485889554 -0.948355198 0.040003553 0.996427417 -0.065757744 0.051552542 0.012278756
1520503211.697412 -0.464198649 -0.930625200 0.036445670 0.996613860 -0.066098653 0.047110442 0.013133141
1520503211.747414 -0.443240613 -0.911333144 0.031583559 0.996738791 -0.067372493 0.042608246 0.012546072
1520503211.797416 -0.423143655 -0.890140355 0.026387097 0.997008502 -0.065006338 0.040676612 0.009677648
1520503211.847418 -0.404426038 -0.866812527 0.021693740 0.997475386 -0.057346229 0.041875429 0.000823152
1520503211.897419 -0.386860490 -0.842440844 0.019599743 0.997931182 -0.047975931 0.040419959 -0.014069778
1520503211.947228 -0.368710369 -0.817523479 0.018366581 0.998178244 -0.042598668 0.032669209 -0.027538279
1520503211.997229 -0.349612385 -0.792130053 0.017686915 0.998040259 -0.043640051 0.028494377 -0.034632538
1520503212.047230 -0.329348087 -0.766638279 0.016393101 0.997668147 -0.048112847 0.032348447 -0.036014128
1520503212.097232 -0.307898700 -0.740509748 0.014283959 0.997220635 -0.052214023 0.038813423 -0.036307339
1520503212.147234 -0.285502911 -0.712958157 0.012275035 0.996652842 -0.055132329 0.044667494 -0.040601198
1520503212.197235 -0.261633545 -0.685474873 0.009288385 0.996006489 -0.058687359 0.046591677 -0.048539840
1520503212.247237 -0.236707091 -0.657364428 0.005855166 0.995389998 -0.064024799 0.044297729 -0.056011815
1520503212.297342 -0.210846484 -0.629204094 0.001536022 0.994983613 -0.068524897 0.040243674 -0.060766064
1520503212.346930 -0.184358135 -0.599556684 -0.001936757 0.995056808 -0.066383377 0.035257500 -0.064901434
1520503212.396930 -0.156485453 -0.568012595 -0.003491654 0.995535672 -0.059888415 0.027838226 -0.067433245
1520503212.446932 -0.128512904 -0.535874784 -0.003951476 0.996007979 -0.054357141 0.024804847 -0.066318370
1520503212.496933 -0.101378962 -0.503434181 -0.003920878 0.996111095 -0.053383306 0.029864535 -0.063412912
1520503212.546935 -0.076509446 -0.471733928 -0.004379385 0.995946109 -0.054910414 0.036495492 -0.061190203
1520503212.596936 -0.054311469 -0.440485001 -0.005992346 0.995831668 -0.057245832 0.038879722 -0.059419356
1520503212.646939 -0.034454502 -0.408875436 -0.008648553 0.995908201 -0.059238318 0.037786204 -0.056833103
1520503212.696939 -0.016336860 -0.376702130 -0.011390029 0.996158719 -0.060432486 0.035896081 -0.052223179
1520503212.746942 0.000487660 -0.341536969 -0.013528732 -0.996440709 0.061941348 -0.035021316 0.045197599
1520503212.796730 0.015226233 -0.304222524 -0.015156406 -0.996478438 0.065276124 -0.037086055 0.037341952
1520503212.846731 0.029259663 -0.265808761 -0.018927794 0.996229351 -0.069667995 0.041188817 -0.031256899
1520503212.896733 0.041238092 -0.226057753 -0.023046698 0.996061563 -0.072734594 0.042930953 -0.026983187
1520503212.946734 0.052706033 -0.186306059 -0.028088938 0.996520162 -0.068936966 0.041073292 -0.022546392
1520503212.996736 0.064138673 -0.146570325 -0.032869406 0.997230172 -0.060781088 0.038325597 -0.019203568
1520503213.046736 0.075114600 -0.108054005 -0.037237141 0.997666299 -0.055568896 0.034806535 -0.019042751
1520503213.096739 0.086382940 -0.071474485 -0.040631671 0.998183727 -0.049453683 0.026528409 -0.021905050
1520503213.146741 0.098589152 -0.034768075 -0.042467691 0.998644292 -0.041744418 0.019921692 -0.023880012
1520503213.196669 0.111021101 -0.000734337 -0.044558749 0.998684824 -0.040045727 0.021420937 -0.023796210
1520503213.246671 0.123485848 0.031400800 -0.046545789 0.998194754 -0.046430733 0.029870898 -0.023648717
1520503213.296673 0.135787308 0.062756307 -0.048586279 0.997469127 -0.053333160 0.039761912 -0.025099047
1520503213.346674 0.148109540 0.093338721 -0.051421709 0.997043788 -0.055465598 0.044980966 -0.028356684
1520503213.396677 0.161169693 0.124501221 -0.054192018 0.996788740 -0.055077877 0.047709737 -0.033204190
1520503213.446677 0.175420806 0.155353710 -0.057178590 0.996472538 -0.057490405 0.048070937 -0.037769534
1520503213.496679 0.190902099 0.185675591 -0.060348000 0.996122181 -0.061360139 0.046793524 -0.042260904
1520503213.546680 0.207591906 0.216634095 -0.063163832 0.995971441 -0.060731947 0.045850661 -0.047437962
1520503213.596745 0.224754363 0.246524140 -0.066720247 0.996042132 -0.055590410 0.045348760 -0.052471671
1520503213.646746 0.242756158 0.273317158 -0.069991522 0.996221006 -0.049564425 0.044700053 -0.055579580
1520503213.696748 0.260393679 0.300610989 -0.071870834 0.996380568 -0.046191785 0.043603770 -0.056487300
1520503213.746750 0.277962148 0.326925188 -0.072712258 0.996771574 -0.043705013 0.041546516 -0.053011946
1520503213.796751 0.295113713 0.352028698 -0.073146574 0.997070372 -0.043064401 0.041635800 -0.047567535
1520503213.846753 0.310994864 0.374220669 -0.074118473 0.997136116 -0.045036402 0.042377464 -0.043537226
1520503213.896754 0.326018363 0.393271148 -0.076623261 0.997150719 -0.048080236 0.041548938 -0.040651046
1520503213.946756 0.339936644 0.411765277 -0.079127140 0.997301340 -0.048790164 0.039926156 -0.037623744
1520503213.996817 0.354267895 0.429862827 -0.082428001 0.997585833 -0.047940176 0.038204011 -0.032630481
1520503214.046819 0.369272977 0.448372215 -0.086469375 0.997967541 -0.046430178 0.035168488 -0.025850501
1520503214.096820 0.385289073 0.466190785 -0.091771722 0.998425424 -0.042891376 0.031772394 -0.017250631
1520503214.146822 0.402626246 0.483927906 -0.097327732 0.998857319 -0.038599115 0.027482161 -0.006238824
1520503214.196823 0.421365052 0.501393259 -0.101048931 0.999145627 -0.034463428 0.022572942 0.003284100
1520503214.246825 0.441861600 0.518241227 -0.103214934 0.999390841 -0.028730715 0.017375866 0.009522845
1520503214.296827 0.465196252 0.533052981 -0.104808457 0.999437988 -0.024736147 0.014494717 0.017373212
1520503214.346828 0.491067916 0.545173705 -0.106549978 0.999102533 -0.026190944 0.019688813 0.026842499
1520503214.396871 0.518768132 0.555494547 -0.108299814 0.998432755 -0.030554827 0.029200243 0.036685951
1520503214.446872 0.548445404 0.562779844 -0.110409833 0.997762442 -0.032124978 0.036909141 0.045561809
1520503214.496874 0.580412626 0.567669570 -0.112546287 0.997276962 -0.030800665 0.038509533 0.054836586
1520503214.546876 0.614710510 0.570214808 -0.114116549 0.996672750 -0.030520618 0.038186386 0.065220602
1520503214.596877 0.650924802 0.570554256 -0.115289576 0.995852172 -0.035363719 0.037723102 0.074866019
1520503214.646879 0.688787580 0.570121646 -0.116042256 0.995110869 -0.040526118 0.034451492 0.083217546
1520503214.696880 0.727064312 0.566664457 -0.118142456 0.994811773 -0.039228663 0.029070424 0.089250326
1520503214.746882 0.764110148 0.560083866 -0.122328363 0.994632304 -0.038232360 0.022810515 0.093405396
1520503214.796911 0.799587488 0.551358521 -0.127537742 0.994655609 -0.036454514 0.017407693 0.095017470
1520503214.846912 0.833333552 0.540167630 -0.133893415 0.994799495 -0.029423801 0.013353879 0.096591502
1520503214.896914 0.864873171 0.524400294 -0.141701430 0.994767189 -0.017571218 0.011143684 0.100027159
1520503214.946915 0.895794153 0.505124211 -0.149721563 0.994498134 -0.007293443 0.013132066 0.103672385
1520503214.996917 0.926483154 0.480903804 -0.155588731 0.994122744 -0.002126131 0.019189633 0.106523491
1520503215.046918 0.957796812 0.451905638 -0.156873211 0.993574440 -0.002293726 0.025575159 0.110229276
1520503215.096920 0.989824176 0.418186396 -0.152611330 0.992774725 -0.006276312 0.032026637 0.115469977
1520503215.146921 1.023107529 0.379958034 -0.139583230 -0.991647661 0.010967695 -0.038515095 -0.122602530
1520503215.196923 1.057603955 0.336953491 -0.119648091 0.990409672 -0.017857123 0.042199925 0.130341858
1520503215.246928 1.092372060 0.295091003 -0.090295531 -0.989168108 0.030494770 -0.038842436 -0.138231292
1520503215.296930 1.126294732 0.254501313 -0.051358216 0.988089144 -0.047040746 0.034161527 0.142478406
1520503215.346931 1.159051061 0.215723395 -0.004717879 0.986408889 -0.068379991 0.025215017 0.147261664
1520503215.396933 1.189787745 0.181325153 0.046309847 0.983239174 -0.096172288 0.016612664 0.153999195
1520503215.446970 1.218078613 0.150484830 0.098571256 0.978971124 -0.125863910 0.013775471 0.159950316
1520503215.496936 1.244294763 0.121361218 0.149621949 0.975019097 -0.150091320 0.015011140 0.163049519
1520503215.546938 1.268478036 0.094653726 0.199275762 0.973110497 -0.165344164 0.019952862 0.159120321
1520503215.596939 1.289570928 0.066089906 0.243781134 0.972983003 -0.173443645 0.024313930 0.150433749
1520503215.646807 1.308340430 0.038375188 0.285346895 0.973116398 -0.180060774 0.025841344 0.141262144
1520503215.696808 1.325236797 0.011691980 0.325172663 0.971977532 -0.191454202 0.022456476 0.134538680
1520503215.746810 1.340373635 -0.013443395 0.362860441 0.969225287 -0.209429309 0.016733553 0.128303200
1520503215.796811 1.354775906 -0.036043935 0.397809863 0.965500295 -0.228871897 0.014112826 0.123400293
1520503215.846813 1.367353559 -0.060242444 0.430755556 0.962401271 -0.244483605 0.012350421 0.117724359
1520503215.896814 1.378717065 -0.084778450 0.461788654 0.961103141 -0.253020167 0.010714617 0.110212661
1520503215.946816 1.388153672 -0.109964877 0.491575241 0.960911751 -0.257128268 0.009549228 0.102188788
1520503215.996818 1.395081520 -0.135628223 0.519891679 0.960848451 -0.260609597 0.006694778 0.093851320
1520503216.046637 1.398786545 -0.161282569 0.543205261 0.960678816 -0.264256924 0.004884604 0.085093021
1520503216.096639 1.400038242 -0.188094109 0.564643383 0.960290015 -0.268439740 0.005144990 0.075873718
1520503216.146640 1.398625851 -0.216691196 0.582006633 0.960371137 -0.270580530 0.007575849 0.066454284
1520503216.196642 1.394598603 -0.246649683 0.593981564 0.961406529 -0.268781215 0.011255267 0.057684947
1520503216.246643 1.388195872 -0.277513087 0.599780560 0.962886691 -0.264577359 0.013401322 0.051657002
1520503216.296645 1.379394889 -0.311198533 0.597150505 0.964088202 -0.260884732 0.016404865 0.046947338
1520503216.346647 1.368706465 -0.344217151 0.588633180 0.964809239 -0.258815706 0.019141216 0.042323891
1520503216.396648 1.356350303 -0.378269970 0.571688652 0.965437412 -0.257075578 0.020684225 0.037615187
1520503216.446542 1.342144728 -0.414284438 0.547272861 0.966817617 -0.252249509 0.022764016 0.033403557
1520503216.496544 1.326403856 -0.451954186 0.514511347 0.969687283 -0.241084397 0.026771260 0.029466700
1520503216.546545 1.309026003 -0.491487831 0.474285394 0.973187864 -0.226870462 0.027337614 0.026229070
1520503216.596547 1.292049408 -0.527126610 0.431112677 0.976433158 -0.212649137 0.027923128 0.024062701
1520503216.646548 1.273381710 -0.560105801 0.383548945 0.979062140 -0.200787693 0.029408576 0.016025266
1520503216.696549 1.254704595 -0.590409040 0.333151400 0.981242597 -0.190459579 0.028752234 0.007843633
1520503216.746551 1.235032201 -0.618902802 0.280912936 0.983850956 -0.177316472 0.024373692 -0.001475253
1520503216.796553 1.214272857 -0.645681739 0.227033198 0.987121940 -0.158410802 0.019709598 -0.010389079
1520503216.846521 1.192330122 -0.674014270 0.171999186 0.990634203 -0.134362340 0.015963266 -0.018326748
1520503216.896523 1.168889403 -0.697250903 0.117171697 0.993668556 -0.109048277 0.011244385 -0.024595397
1520503216.946525 1.144152641 -0.718925536 0.063417651 0.995732367 -0.087577119 0.008838256 -0.027734762
1520503216.996526 1.118487239 -0.738319039 0.012824303 0.996899545 -0.072702229 0.008472201 -0.028878240
1520503217.046607 1.091839671 -0.749468446 -0.031107359 -0.997566581 0.062062982 -0.011546968 0.029593257
1520503217.096529 1.063045859 -0.763580918 -0.073718168 -0.997647047 0.056268081 -0.020769384 0.033210661
1520503217.146531 1.033983231 -0.781264722 -0.112264208 0.997222006 -0.056680128 0.029814718 -0.038036492
1520503217.196532 1.000927806 -0.787401795 -0.146334589 0.996242166 -0.063645832 0.037028741 -0.045603555
1520503217.246534 0.967763245 -0.788966060 -0.177276254 0.995735943 -0.063690409 0.044129465 -0.050060514
1520503217.296928 0.932972610 -0.786793530 -0.206271648 0.995858312 -0.053958785 0.049062740 -0.054292243
1520503217.346930 0.898934960 -0.780424654 -0.231924385 0.996798337 -0.036568835 0.042685978 -0.056866124
1520503217.396931 0.861550629 -0.759341121 -0.251875520 -0.997760892 0.015511871 -0.031268854 0.057051424
1520503217.446933 0.832316816 -0.752773643 -0.272172511 0.998096108 0.004628024 0.027551942 -0.054987825
1520503217.496934 0.799356163 -0.737372160 -0.289750278 0.998012960 0.019386217 0.028462885 -0.052765969
1520503217.546936 0.766025960 -0.722509205 -0.305514455 0.997378111 0.035151772 0.034797687 -0.052825600
1520503217.596938 0.732044578 -0.708593488 -0.317158699 0.996604383 0.048113491 0.042029504 -0.051946487
1520503217.646939 0.697269678 -0.695761085 -0.321581960 0.996558130 0.049844570 0.044755872 -0.048830733
1520503217.697503 0.661650002 -0.681374848 -0.317956895 0.997133017 0.045944326 0.045377865 -0.039444376
1520503217.747504 0.628262162 -0.669552863 -0.309933931 -0.997707129 -0.043273665 -0.045882273 0.024552574
1520503217.797506 0.597287834 -0.658326089 -0.294576317 0.998005211 0.038494915 0.049821153 -0.004646710
1520503217.847507 0.568297863 -0.649599969 -0.272528112 0.997803569 0.030864211 0.056465045 0.015721092
1520503217.897509 0.541799903 -0.643369675 -0.243603423 0.997544646 0.019917620 0.059751421 0.030625029
1520503217.947511 0.517679572 -0.639425218 -0.209138572 0.997600019 0.006188350 0.056363977 0.039737180
1520503217.997512 0.495297730 -0.636708021 -0.170078546 0.997569919 -0.010034716 0.052808888 0.044326618
1520503218.047514 0.474847198 -0.632919133 -0.127234265 0.997244298 -0.029720947 0.049225677 0.046875935
1520503218.097579 0.455840319 -0.625198483 -0.079775229 0.996702015 -0.049651653 0.045973770 0.044792116
1520503218.147580 0.437731415 -0.614820182 -0.031177804 0.995944023 -0.069175161 0.043387722 0.037788272
1520503218.197582 0.420723736 -0.600218356 0.017333377 0.995209813 -0.084167510 0.039226428 0.030571939
1520503218.247583 0.404041827 -0.581992447 0.064292282 0.994628787 -0.093598992 0.037571330 0.023265833
1520503218.297584 0.388143718 -0.560312450 0.109813057 0.994064808 -0.100027457 0.038592163 0.018449789
1520503218.347586 0.372792751 -0.535634816 0.153182968 0.993366838 -0.106473885 0.040986739 0.014349186
1520503218.397588 0.358568579 -0.505959690 0.192487031 0.992814243 -0.111140892 0.042242620 0.013536471
1520503218.447589 0.345590234 -0.479328424 0.230566755 0.992742002 -0.110864170 0.043426722 0.016928529
1520503218.496842 0.333701342 -0.452895969 0.266407043 0.992835045 -0.109019257 0.043679006 0.022034878
1520503218.546843 0.321642280 -0.425233901 0.302414119 0.992423177 -0.112176485 0.041800804 0.027667407
1520503218.596847 0.309007645 -0.397263169 0.338030636 0.991466820 -0.120428830 0.038989931 0.031149155
1520503218.646846 0.295580953 -0.368610620 0.372124732 0.990422189 -0.128944650 0.036958821 0.032729104
1520503218.696848 0.280889004 -0.339045405 0.403725803 0.989580870 -0.134838358 0.036477145 0.034897748
1520503218.746850 0.265398413 -0.309810013 0.432328731 0.988714159 -0.140055358 0.035404529 0.039691105
1520503218.796851 0.248473182 -0.279785544 0.457951307 0.987603307 -0.146299109 0.036790825 0.043391317
1520503218.846853 0.230249867 -0.248934001 0.480511993 0.986398280 -0.152592465 0.040259719 0.045969296
1520503218.896679 0.210677445 -0.217749402 0.499655157 0.985534787 -0.156915411 0.041669849 0.048604049
1520503218.946681 0.189564228 -0.187346876 0.514062464 0.985356569 -0.157264858 0.043053422 0.049866434
1520503218.996682 0.166823179 -0.160391986 0.520833254 0.985731781 -0.153457910 0.048579659 0.049229927
1520503219.046684 0.143593073 -0.134639502 0.525061607 0.986359000 -0.148401007 0.053759426 0.046723355
1520503219.096685 0.121069632 -0.109719865 0.524972260 0.986896753 -0.144814342 0.053019911 0.047461282
1520503219.146687 0.099028990 -0.085119113 0.519650877 0.986747146 -0.145179421 0.051851224 0.050640564
1520503219.196690 0.077173069 -0.061667532 0.507915497 0.986110151 -0.148278058 0.052843817 0.052989554
1520503219.246691 0.054958962 -0.040173627 0.488941342 0.986021459 -0.149528235 0.052382722 0.051566616
1520503219.296730 0.032667652 -0.020209769 0.459674001 0.987272143 -0.143320009 0.044714585 0.052476544
1520503219.346731 0.010895647 0.001342109 0.426088154 0.989295721 -0.130192861 0.040295899 0.052155811
1520503219.396733 -0.010656812 0.024485774 0.388029397 0.991000473 -0.116653293 0.043499593 0.049172755
1520503219.446734 -0.032217719 0.049242720 0.346987188 0.992061019 -0.107924849 0.047789626 0.043397859
1520503219.496736 -0.052473035 0.075615451 0.303898960 0.993039012 -0.100867338 0.047948387 0.037420385
1520503219.546738 -0.072572060 0.103352837 0.259334117 0.994121313 -0.092258193 0.048689071 0.028993964
1520503219.596740 -0.093205728 0.130058199 0.212073132 0.995259643 -0.080840446 0.050445486 0.019451233
1520503219.646741 -0.112741798 0.159223869 0.166789964 0.996313751 -0.068111077 0.050828867 0.011671411
1520503219.696742 -0.132062212 0.189130187 0.122970894 0.997110426 -0.057284988 0.049550489 0.005837705
1520503219.746847 -0.151308849 0.220679566 0.080382407 0.997719824 -0.050118327 0.045144431 0.002322881
1520503219.796848 -0.171281070 0.251363069 0.040001709 0.998073816 -0.045049898 0.042602580 -0.002070967
1520503219.846849 -0.194371656 0.283219337 -0.000524994 -0.998514235 0.040904228 -0.035266422 0.007244877
1520503219.896850 -0.212590262 0.314298153 -0.038715322 0.998990238 -0.031626515 0.028958065 -0.013407355
1520503219.946852 -0.235064507 0.346577257 -0.076020993 0.999306858 -0.020137919 0.023402993 -0.020797571
1520503219.996854 -0.258067906 0.379643530 -0.111484535 0.999326468 -0.008271120 0.021161964 -0.028818609
1520503220.046855 -0.282136708 0.413843781 -0.144602060 0.999138296 0.004663715 0.022545375 -0.034535516
1520503220.096857 -0.307237685 0.448669493 -0.175891712 0.998698294 0.020942338 0.025564997 -0.038854662
1520503220.147027 -0.336769968 0.481635302 -0.206758127 -0.998116612 -0.037353233 -0.024995469 0.041753277
1520503220.197034 -0.361090392 0.513962865 -0.229936868 0.997254133 0.052978385 0.021697737 -0.046976674
1520503220.247029 -0.390057564 0.547183037 -0.250546396 0.996062875 0.069426060 0.017798223 -0.052174062
1520503220.297031 -0.419624150 0.578977406 -0.266437590 0.994558573 0.085748218 0.015487043 -0.057102237
1520503220.347033 -0.448950142 0.608740270 -0.276492298 0.992835402 0.102724984 0.014372953 -0.059321068
1520503220.397034 -0.478152573 0.631121099 -0.280830622 0.991049170 0.118519418 0.013555908 -0.059925508
1520503220.447036 -0.507483780 0.643918097 -0.280407280 0.990660846 0.121104077 0.016259640 -0.060503293
1520503220.497037 -0.535326302 0.646665215 -0.270586818 0.991624117 0.110140197 0.018679025 -0.064822339
1520503220.547330 -0.562226892 0.642442524 -0.256260276 -0.992421508 -0.098669253 -0.021554211 0.069996148
1520503220.597331 -0.587953508 0.627887726 -0.236220852 0.992862523 0.088119544 0.025284402 -0.076286875
1520503220.647333 -0.612470031 0.605542958 -0.212241560 0.993430495 0.073204130 0.032019939 -0.081925750
1520503220.697334 -0.635804057 0.575643539 -0.183924288 0.994327784 0.054273609 0.040061928 -0.082229972
1520503220.747336 -0.657148838 0.540104032 -0.150771886 0.995264471 0.032554172 0.050025035 -0.076723255
1520503220.797338 -0.675384760 0.500561953 -0.114263438 0.996048033 0.012589224 0.056448966 -0.067404449
1520503220.847339 -0.691642523 0.458100885 -0.074358873 0.996084988 -0.003952719 0.061801672 -0.063084953
1520503220.897341 -0.706137180 0.413829207 -0.027775884 0.995683074 -0.020848161 0.065921351 -0.061927143
1520503220.947311 -0.718058765 0.371727318 0.020378934 0.994521558 -0.040671356 0.072303042 -0.063601092
1520503220.997314 -0.727572799 0.332078040 0.070417672 0.993347943 -0.060422059 0.074340798 -0.063894950
1520503221.047315 -0.735098720 0.295639575 0.122444034 0.992260993 -0.078448318 0.073663980 -0.061948851
1520503221.097317 -0.740884483 0.262869716 0.174539000 0.991081417 -0.095362723 0.073549457 -0.057044622
1520503221.147319 -0.744532704 0.234302521 0.225408584 0.990157366 -0.111325964 0.068931676 -0.049431209
1520503221.197320 -0.745919228 0.213824898 0.274920106 0.989028454 -0.125917628 0.063565291 -0.043896925
1520503221.247321 -0.747523129 0.189558089 0.319121778 0.987829089 -0.137191385 0.061522506 -0.039840184
1520503221.297324 -0.748708069 0.165451854 0.358487159 0.986919105 -0.144793719 0.061650816 -0.034995351
1520503221.347034 -0.748932540 0.141572997 0.392600894 0.986699998 -0.148038432 0.061033744 -0.027975783
1520503221.397035 -0.748885214 0.116230063 0.423001379 0.986555517 -0.149000868 0.063264534 -0.022463130
1520503221.447037 -0.749041080 0.089263871 0.450800180 0.986078382 -0.150997505 0.066396691 -0.020992354
1520503221.497038 -0.749844491 0.061146323 0.475962698 0.985233188 -0.154984578 0.068728030 -0.023912713
1520503221.547039 -0.750560701 0.035641678 0.497359186 0.983788967 -0.162267357 0.071151532 -0.027680108
1520503221.597040 -0.752039254 0.005631680 0.518725872 0.981956244 -0.172157586 0.072395511 -0.029710183
1520503221.647047 -0.753346264 -0.025994979 0.537822008 0.980604291 -0.179412365 0.072859928 -0.030298695
1520503221.697044 -0.754601419 -0.059334483 0.554141641 0.980322301 -0.180356115 0.074279226 -0.030372873
1520503221.746933 -0.754873097 -0.092083745 0.567230940 0.980620563 -0.178920984 0.074216321 -0.029368842
1520503221.796983 -0.753020525 -0.124986544 0.577206433 0.980697334 -0.180513069 0.070973113 -0.024713162
1520503221.846936 -0.750995457 -0.157565743 0.578278005 0.980355740 -0.185268298 0.064589106 -0.020166039
1520503221.896938 -0.745816946 -0.191441476 0.576570034 0.980382025 -0.188433588 0.055107597 -0.017523101
1520503221.946940 -0.738633156 -0.226523355 0.567682743 0.981486320 -0.185845330 0.043889474 -0.014826516
1520503221.996941 -0.730277300 -0.262791932 0.550337434 0.983645558 -0.175838441 0.036117658 -0.014760198
1520503222.046943 -0.720962763 -0.300348908 0.524728000 0.986307383 -0.160607263 0.033668030 -0.016415324
1520503222.096944 -0.710234463 -0.338518083 0.491120815 0.988287508 -0.146110937 0.039005309 -0.020447578
1520503222.146946 -0.699926674 -0.378507435 0.448178053 0.989310324 -0.135298505 0.047200639 -0.027047377
1520503222.196848 -0.686358035 -0.414663434 0.403309166 0.989826918 -0.126937360 0.054451283 -0.034129146
1520503222.246851 -0.671731234 -0.447430670 0.355336964 0.990580857 -0.115337685 0.058810294 -0.044589330
1520503222.296852 -0.656230092 -0.476605207 0.306793153 0.991733909 -0.098681055 0.060190603 -0.055705931
1520503222.346853 -0.640414894 -0.502102196 0.259671718 0.992910028 -0.082498856 0.052792236 -0.067355186
1520503222.396856 -0.623130918 -0.524132252 0.214914784 0.993831396 -0.069973089 0.044097207 -0.073881485
1520503222.446856 -0.605067968 -0.540566504 0.173215836 -0.994325817 0.060866628 -0.036050826 0.079447180
1520503222.496858 -0.587513804 -0.557331324 0.129977092 0.994627416 -0.053772107 0.027249325 -0.084156588
1520503222.546861 -0.570519269 -0.565919220 0.090658903 0.994584858 -0.045224410 0.023878276 -0.090474106
1520503222.596915 -0.554200232 -0.570229352 0.052095331 0.994389534 -0.035538781 0.021565704 -0.097269453
1520503222.646916 -0.537619650 -0.570146084 0.013993119 0.994354010 -0.025784058 0.021230198 -0.100720130
1520503222.696918 -0.521749377 -0.564801276 -0.022627730 0.994306326 -0.017843949 0.021266663 -0.102880195
1520503222.746920 -0.505463600 -0.553864300 -0.057459507 0.994133234 -0.009270561 0.020553855 -0.105786383
1520503222.796920 -0.489061385 -0.538549721 -0.088704243 0.993993640 0.001336045 0.019299267 -0.107714370
1520503222.846923 -0.472074896 -0.517323494 -0.118530683 0.993749797 0.014851310 0.019329429 -0.108936734
1520503222.896924 -0.454305023 -0.492230058 -0.146918774 0.993476450 0.031107329 0.018643696 -0.108117580
1520503222.946926 -0.435807765 -0.465532929 -0.174392909 0.993306220 0.049402248 0.016373999 -0.103121705
1520503222.997363 -0.415600806 -0.437503427 -0.199888825 0.993220091 0.064011447 0.011308576 -0.096376963
1520503223.047364 -0.395044833 -0.409273416 -0.222062394 0.993189692 0.071622416 0.006413084 -0.091669649
1520503223.097369 -0.374538451 -0.380775422 -0.241353050 0.992875814 0.078282200 0.008804310 -0.089398459
1520503223.147367 -0.354063183 -0.353481591 -0.257218957 0.992203176 0.087007947 0.016874228 -0.087622777
1520503223.197369 -0.332838744 -0.328550041 -0.263898700 0.991262436 0.095930971 0.021443637 -0.087955579
1520503223.247370 -0.310994804 -0.310000449 -0.260563612 0.990814805 0.100994766 0.018988581 -0.087895863
1520503223.297377 -0.287914038 -0.299843401 -0.247582734 0.991826713 0.095046915 0.014931652 -0.083802462
1520503223.347374 -0.263054907 -0.296696067 -0.225636169 0.993980825 0.077452704 0.012951338 -0.076390520
1520503223.397982 -0.234963357 -0.293551296 -0.192652836 0.995998204 0.053662568 0.016045658 -0.069645867
1520503223.447894 -0.205943599 -0.296228379 -0.155190319 -0.997237563 -0.030511593 -0.022152321 0.063997425
1520503223.497896 -0.175306454 -0.299686342 -0.111429073 -0.997589767 -0.008946099 -0.030562351 0.061648991
1520503223.547899 -0.142899796 -0.300671905 -0.060998563 0.997582018 -0.012256292 0.034129865 -0.059288081
1520503223.597899 -0.109490715 -0.302502632 -0.007608840 0.996983349 -0.034491375 0.040747579 -0.056340553
1520503223.647902 -0.074958391 -0.300026536 0.048410535 0.995869040 -0.058271542 0.039536662 -0.057325229
1520503223.697902 -0.039265603 -0.294970363 0.105381556 0.994745076 -0.076988071 0.035038091 -0.057683673
1520503223.747904 -0.003352784 -0.286418974 0.163058758 0.993165135 -0.096342586 0.031329837 -0.057962298
1520503223.797158 0.031506550 -0.272911221 0.218834206 0.991021872 -0.115896493 0.028955197 -0.060044151
1520503223.847160 0.065884456 -0.251605213 0.275708199 0.988791585 -0.132638678 0.024083933 -0.064173788
1520503223.897161 0.098654397 -0.231477350 0.327819705 0.986386240 -0.146875694 0.021337463 -0.070814006
1520503223.947163 0.130403176 -0.208939746 0.376285315 0.983914495 -0.159143880 0.024713002 -0.077297628
1520503223.997165 0.161821246 -0.184674904 0.419998944 0.981879175 -0.168702334 0.030186366 -0.080879942
1520503224.047166 0.192781433 -0.158405975 0.457982361 0.980214298 -0.176020592 0.036876362 -0.082685933
1520503224.097168 0.224092662 -0.131187573 0.490734518 0.978711128 -0.182119355 0.045619607 -0.082921691
1520503224.147169 0.255650342 -0.103654593 0.517578840 0.977662683 -0.186567590 0.054194145 -0.080194995
1520503224.197171 0.285464406 -0.076574549 0.538559794 0.976852715 -0.190548092 0.061314791 -0.075437330
1520503224.246883 0.317153066 -0.050576657 0.554925859 0.975926936 -0.194454044 0.067646906 -0.071959071
1520503224.296885 0.348227918 -0.025377398 0.566577673 0.975631416 -0.196082488 0.068889461 -0.070350714
1520503224.346887 0.378025144 -0.002026635 0.572367907 0.975756228 -0.196233884 0.066425286 -0.070568547
1520503224.396889 0.406692117 0.018474715 0.570586443 0.976634741 -0.193017974 0.063925758 -0.069586396
1520503224.446890 0.434078008 0.036812194 0.561175108 0.977819502 -0.188742235 0.060984638 -0.067277424
1520503224.496892 0.461537719 0.053179137 0.543366194 0.979420602 -0.183554739 0.058346309 -0.060321253
1520503224.546893 0.486977100 0.059927441 0.512490034 0.981157601 -0.176162452 0.058376350 -0.053747009
1520503224.596895 0.512460291 0.069891296 0.478603899 0.982944369 -0.165988952 0.058438066 -0.053414855
1520503224.646966 0.537412584 0.079514779 0.438983411 0.985214949 -0.152621821 0.053510126 -0.056522995
1520503224.696968 0.562128484 0.089668378 0.393625140 0.987884581 -0.136176184 0.044374131 -0.059758350
1520503224.746969 0.587150753 0.101103827 0.343033612 0.990270853 -0.119006254 0.037139349 -0.061821345
1520503224.796971 0.613155186 0.113723323 0.288173944 0.991949975 -0.104118884 0.030433064 -0.065332741
1520503224.846972 0.640179157 0.122060843 0.227224573 0.993255258 -0.090730533 0.027609508 -0.066706516
1520503224.896974 0.669783533 0.135529593 0.166871354 0.993943572 -0.077737726 0.029547809 -0.071832858
1520503224.946976 0.700414300 0.151150301 0.106211163 0.994732499 -0.065210849 0.018195128 -0.076966785
1520503224.996978 0.731031716 0.168842807 0.047510818 0.995296776 -0.052123927 0.003700090 -0.081570283
1520503225.047042 0.763000190 0.186786756 -0.011215959 -0.995382786 0.037997521 0.000326503 0.088143192
1520503225.097044 0.790821791 0.209413305 -0.062073916 -0.995621562 0.026017545 -0.003763177 0.089703619
1520503225.147047 0.817060530 0.235435590 -0.107543528 -0.995644510 0.021332113 -0.007292917 0.090465285
1520503225.197047 0.839212120 0.261492163 -0.146025300 0.995657444 -0.018799992 0.013219660 -0.090211473
1520503225.247050 0.862726033 0.290678471 -0.183507502 0.995605707 -0.012378666 0.019654678 -0.090717912
1520503225.297050 0.885099471 0.321802825 -0.218599349 0.995499432 -0.001728114 0.025337579 -0.091302000
1520503225.347052 0.906647265 0.354191512 -0.251236677 0.995379746 0.008473388 0.028578404 -0.091272935
1520503225.397053 0.927346289 0.388604522 -0.281521291 0.994977415 0.018057562 0.030926365 -0.093474746
1520503225.447221 0.947915792 0.425759614 -0.309491158 0.994605541 0.029864756 0.031342115 -0.094264008
1520503225.497221 0.970782936 0.461660355 -0.336794168 0.994321465 0.045614164 0.028468529 -0.091835469
1520503225.547224 0.991812527 0.498958319 -0.359402001 0.993975759 0.061151497 0.024437463 -0.087610006
1520503225.597226 1.013239980 0.535685360 -0.378285289 0.993269622 0.077381186 0.018606260 -0.084151790
1520503225.647227 1.034334183 0.568440437 -0.393824548 0.992002249 0.093389168 0.010398718 -0.084272854
1520503225.697229 1.056203485 0.597855628 -0.404040456 0.990674615 0.104331613 0.004249639 -0.087525144
1520503225.747230 1.079787135 0.622569859 -0.407367885 0.989591241 0.114177287 0.002260783 -0.087565444
1520503225.797232 1.104081273 0.639601946 -0.404567480 0.989430308 0.121934950 0.003256220 -0.078415953
1520503225.847488 1.129809022 0.648602128 -0.396712869 0.991102815 0.117715351 0.006188264 -0.061807655
1520503225.897490 1.156643033 0.650090158 -0.383032322 0.993576229 0.103349686 0.012632007 -0.044335485
1520503225.947492 1.184903622 0.644776762 -0.362773448 0.995556176 0.087335005 0.019401327 -0.029397715
1520503225.997494 1.213902473 0.633166492 -0.335716277 0.996809840 0.073722638 0.024149189 -0.018759755
1520503226.047495 1.243280292 0.616933465 -0.301053703 0.997859240 0.059027668 0.025997985 -0.010810359
1520503226.097497 1.273388267 0.599907398 -0.257568836 0.998931229 0.038431715 0.025475973 -0.003220397
1520503226.147499 1.304519057 0.581004202 -0.210336700 0.999677241 0.014195918 0.020639477 0.004246625
1520503226.197500 1.335923553 0.563395619 -0.160069019 0.999835610 -0.006089281 0.013779572 0.010092269
1520503226.247479 1.366874695 0.547708273 -0.107691258 0.999651849 -0.020465428 0.007813145 0.014708395
1520503226.297481 1.397208810 0.534642518 -0.054084066 0.999161899 -0.035308786 0.000257322 0.020709271
1520503226.347482 1.425647616 0.524989903 0.001200954 0.998123646 -0.055453096 -0.001974963 0.025890797
1520503226.397484 1.451627851 0.519032478 0.056679238 0.996298015 -0.081895001 -0.001277791 0.026112055
1520503226.447485 1.474704504 0.515000343 0.110014185 0.994282901 -0.104527347 -0.000023841 0.021810651
1520503226.497488 1.497140288 0.519557714 0.162532985 0.992650151 -0.119964138 -0.001368572 0.015893774
1520503226.547497 1.514999390 0.517462552 0.206887677 -0.992198765 0.124346606 0.000596350 -0.008899688
1520503226.597491 1.530712962 0.515856862 0.249364272 0.992693186 -0.120620735 0.003228899 -0.000753821
1520503226.647491 1.544172883 0.510877550 0.288465023 0.992781818 -0.119521894 0.007225181 -0.006835749
1520503226.697290 1.555719018 0.503199220 0.324822485 0.991573751 -0.128172934 0.013883889 -0.012671825
1520503226.747292 1.565603614 0.491965503 0.359122515 0.988929927 -0.145324156 0.024018202 -0.017937588
1520503226.797293 1.573718309 0.477432370 0.390799671 0.985459864 -0.165111288 0.032947797 -0.022836685
1520503226.847295 1.580944180 0.459453583 0.418547601 0.982387304 -0.180513754 0.040981814 -0.025506908
1520503226.897296 1.588065863 0.444101512 0.443250120 0.980138719 -0.190038621 0.049116183 -0.028302880
1520503226.947298 1.592998981 0.420442760 0.459849387 0.978489459 -0.195592269 0.057672538 -0.031240251
1520503226.997299 1.597966194 0.394944072 0.468949616 0.977448225 -0.198358595 0.064920977 -0.032158662
1520503227.047301 1.603409410 0.368273497 0.470672429 0.976911962 -0.200599864 0.067268580 -0.029625943
1520503227.097455 1.609772801 0.339173615 0.464635700 0.977110267 -0.201285034 0.064680800 -0.023588540
1520503227.147456 1.616366386 0.306511700 0.449786633 0.978630185 -0.195756823 0.060503345 -0.017363928
1520503227.197458 1.621435881 0.267781347 0.421420813 0.981514454 -0.181728378 0.058505304 -0.013469634
1520503227.247459 1.627556801 0.226450458 0.389242291 0.984884202 -0.163081810 0.057082057 -0.012210385
1520503227.297461 1.633443713 0.183025762 0.350128353 0.988312364 -0.141474456 0.055622473 -0.011397638
1520503227.347462 1.639421582 0.138794497 0.305768609 0.990742266 -0.122855045 0.056851558 -0.010217593
1520503227.397465 1.644953489 0.095271572 0.256728321 0.992430270 -0.108030431 0.057746243 -0.008780354
1520503227.447466 1.649709225 0.053105108 0.204467475 0.993937075 -0.094575055 0.055545647 -0.007707812
1520503227.497215 1.654374361 0.014926864 0.152110085 0.995398164 -0.082900934 0.047705844 -0.005846057
1520503227.547217 1.658469439 -0.019355465 0.101296857 0.996670723 -0.071934596 0.037884019 -0.006138848
1520503227.597219 1.659299016 -0.055450480 0.048568256 0.997605920 -0.061983984 0.029128084 -0.009598189
1520503227.647220 1.661102295 -0.082028560 0.001876982 0.998121977 -0.055135999 0.023006395 -0.013543140
1520503227.697222 1.660469055 -0.104202218 -0.042799667 0.998377740 -0.049831029 0.018188525 -0.020690072
1520503227.747223 1.657540560 -0.122256853 -0.085713036 0.998541951 -0.042060815 0.019344786 -0.027761906
1520503227.797225 1.652064919 -0.135856494 -0.127141505 0.998597741 -0.032627929 0.023691382 -0.034303825
1520503227.847227 1.643840909 -0.146561086 -0.167359367 0.998601973 -0.021142241 0.024883106 -0.041569166
1520503227.897147 1.631455541 -0.156759501 -0.203970820 0.998402357 -0.008547856 0.023186648 -0.050814331
1520503227.947149 1.617515922 -0.164362103 -0.242608011 0.998083115 0.006388542 0.019448258 -0.058404285
1520503227.997151 1.601426244 -0.170673087 -0.280237019 0.997526050 0.023835707 0.014561390 -0.064511023
1520503228.047152 1.583558202 -0.176579133 -0.315584987 0.996558249 0.043531660 0.009239568 -0.069937989
1520503228.097154 1.564486861 -0.183903068 -0.346583426 0.995398343 0.060639903 0.002429350 -0.074155673
1520503228.147204 1.544883251 -0.193477914 -0.370954067 0.994625211 0.072199732 -0.000233411 -0.074215494
1520503228.197156 1.524841547 -0.204818234 -0.383027375 0.993849158 0.084372610 0.003844664 -0.071626455
1520503228.247158 1.503872275 -0.221210614 -0.391007930 0.992552280 0.100227810 0.007858359 -0.068794996
1520503228.297539 1.481072307 -0.242988065 -0.389835149 0.991546571 0.110081308 0.010544704 -0.067870714
1520503228.347541 1.456513047 -0.270536095 -0.378047854 0.991568804 0.109252095 0.011621119 -0.068703778
1520503228.397542 1.430803537 -0.304595739 -0.357980102 0.992683172 0.097659670 0.011212179 -0.070122041
1520503228.447544 1.404726267 -0.342719585 -0.329114825 0.994213879 0.076250389 0.010840404 -0.074881047
1520503228.497545 1.378580332 -0.385012299 -0.292879254 0.995327115 0.051029459 0.012965487 -0.080943860
1520503228.547548 1.354490280 -0.426565826 -0.246928081 0.995911360 0.025217962 0.017767951 -0.084905192
1520503228.597548 1.328766584 -0.470882803 -0.200875118 0.995954156 0.000158135 0.025663456 -0.086120725
1520503228.647550 1.303819180 -0.513660610 -0.152133107 0.995724797 -0.023537315 0.030932527 -0.083793156
1520503228.697551 1.280746102 -0.553897321 -0.101264313 0.995175838 -0.045998070 0.031493485 -0.080731124
1520503228.747911 1.258681655 -0.591027439 -0.049261402 0.994178236 -0.066114701 0.033544846 -0.078187674
1520503228.797913 1.237874627 -0.623111546 0.003016278 0.992894828 -0.083924681 0.038509820 -0.075056590
1520503228.847914 1.216609240 -0.648222625 0.050249126 -0.991290331 0.099989779 -0.042531740 0.074408762
1520503228.897916 1.198527098 -0.667643130 0.107068062 0.989600062 -0.112768970 0.045383319 -0.076910861
1520503228.947917 1.177208185 -0.685556293 0.157208264 0.988213480 -0.122445017 0.046713922 -0.079115257
1520503228.997919 1.155307174 -0.699604034 0.205926329 0.986971140 -0.128397882 0.051991701 -0.081846409
1520503229.047920 1.133591771 -0.708299458 0.251319319 0.985968769 -0.134351045 0.056015912 -0.081717461
1520503229.097922 1.111408710 -0.713003933 0.294053674 0.984847188 -0.143033192 0.060437318 -0.077232949
1520503229.147199 1.088464975 -0.714895129 0.333966106 0.983040392 -0.155973658 0.065575555 -0.070737056
1520503229.197199 1.064180970 -0.713750243 0.371466935 0.980379164 -0.173321947 0.068719596 -0.063983105
1520503229.247202 1.039721251 -0.706239581 0.402613252 0.977118731 -0.192933664 0.070002444 -0.055814844
1520503229.297204 1.013323307 -0.700224280 0.431773990 0.974477053 -0.208961695 0.067162499 -0.047103915
1520503229.347204 0.985865831 -0.693170905 0.454491079 0.973079562 -0.218064681 0.062984332 -0.039962068
1520503229.397207 0.956788242 -0.685130596 0.470857441 0.972355008 -0.222284108 0.061967604 -0.035714924
1520503229.447209 0.926657975 -0.676664770 0.480595350 0.972223878 -0.223151132 0.063022681 -0.031819575
1520503229.497209 0.894736409 -0.669534206 0.483659476 0.972990155 -0.220135942 0.063359454 -0.028566260
1520503229.546973 0.861773372 -0.664782465 0.478966266 0.974490106 -0.213355437 0.064132243 -0.027121367
1520503229.596975 0.825712323 -0.665344119 0.463642687 0.976326168 -0.204540104 0.066009358 -0.024357762
1520503229.646977 0.791361570 -0.663270712 0.444468796 -0.977995396 0.194130555 -0.072191767 0.025034547
1520503229.696978 0.757456303 -0.662422240 0.417189181 0.979770541 -0.181415752 0.079733774 -0.027937297
1520503229.747063 0.725953102 -0.658989668 0.385256559 0.982742012 -0.165691599 0.078567281 -0.024325786
1520503229.796981 0.697063982 -0.651799321 0.348851085 0.985635340 -0.150766179 0.074218445 -0.016859613
1520503229.846982 0.669902503 -0.641439617 0.309923500 0.987610936 -0.139805600 0.070602141 -0.009714043
1520503229.896984 0.644672513 -0.628110886 0.269467264 0.988781750 -0.131108627 0.071337156 -0.005681768
1520503229.946976 0.620980024 -0.610948801 0.227767318 0.989782333 -0.121433884 0.074581519 -0.004738563
1520503229.996977 0.598860621 -0.589449525 0.184968650 0.991261661 -0.107813329 0.075838380 -0.005016287
1520503230.046979 0.574829280 -0.564433515 0.140768886 -0.993105710 0.089387052 -0.075620309 0.005718585
1520503230.096980 0.557354450 -0.538529634 0.096145421 0.994967222 -0.065390170 0.075765342 -0.004894115
1520503230.146982 0.538765788 -0.506396651 0.054525629 0.996087551 -0.041557167 0.077888519 -0.004008383
1520503230.196983 0.522081017 -0.472550869 0.015442134 0.996580422 -0.016870782 0.080879144 -0.001255188
1520503230.246985 0.507428885 -0.438972920 -0.018712740 0.996326268 0.008037682 0.085190110 0.003475049
1520503230.296986 0.494402349 -0.404689342 -0.046782430 0.995150745 0.031087494 0.092511594 0.012254845
1520503230.347209 0.482144624 -0.371057540 -0.068529963 0.992859185 0.050563339 0.105330721 0.024071952
1520503230.397212 0.470599979 -0.339458466 -0.083066851 0.990555406 0.065005802 0.114985853 0.036776707
1520503230.447212 0.458217531 -0.312029004 -0.088354304 0.989613950 0.071973629 0.115215972 0.047003079
1520503230.497215 0.447401136 -0.287009537 -0.089051887 0.990798354 0.073858730 0.100655533 0.052268405
1520503230.547215 0.436614484 -0.265685856 -0.085759968 0.993588626 0.074300133 0.066580363 0.053181279
1520503230.597217 0.425456017 -0.247920334 -0.078824341 0.996044755 0.072263181 0.018510800 0.048273742
1520503230.647218 0.412907630 -0.232364148 -0.069256790 0.996232152 0.067330867 -0.036244307 0.040920291
1520503230.697221 0.398865938 -0.217806846 -0.058742017 0.993563712 0.060311891 -0.089460239 0.034505561
1520503230.747610 0.382766187 -0.203936353 -0.047752239 0.988258481 0.052775990 -0.140505031 0.028607409
1520503230.797612 0.360899806 -0.186864540 -0.034403481 0.980906725 0.044347774 -0.188193396 0.020943265
1520503230.847613 0.342229337 -0.170188323 -0.026227558 0.971470177 0.038522467 -0.233676970 0.012526703
1520503230.897615 0.325018197 -0.153228313 -0.019922759 0.959716976 0.039535608 -0.278049409 0.008298282
1520503230.947616 0.308843464 -0.137485385 -0.016200986 0.946490526 0.045744356 -0.319405556 0.006580777
1520503230.997618 0.293627620 -0.121809527 -0.014383256 0.931417108 0.051500324 -0.360280275 0.002842641
1520503231.047619 0.279575437 -0.104444288 -0.014718510 0.916901469 0.055621501 -0.395210922 -0.002513633
1520503231.097620 0.267068028 -0.085469641 -0.015911326 0.906032801 0.061421841 -0.418711782 -0.003516494
1520503231.147622 0.256423384 -0.065817066 -0.013401397 0.901743770 0.066667639 -0.427092463 0.002406163
1520503231.197501 0.246812284 -0.048913796 -0.016222455 0.911425471 0.067898028 -0.405707091 0.009757884
1520503231.247502 0.242356569 -0.032761235 -0.025473069 -0.933737278 -0.062334180 0.352228314 -0.013579386
1520503231.297506 0.231488645 -0.016653366 -0.030727779 -0.959520102 -0.055750437 0.275624126 -0.015636336
1520503231.347505 0.218914554 0.001038179 -0.036918189 -0.981504083 -0.054135937 0.182619900 -0.019212723
1520503231.397507 0.206068918 0.020793959 -0.043875940 -0.994556546 -0.056989767 0.083223641 -0.026141183
1520503231.447508 0.199220076 0.044780992 -0.044051547 0.997388244 0.061427791 0.012884934 0.035741720
1520503231.497510 0.187010750 0.067874379 -0.047002450 0.991787314 0.060145445 0.103414871 0.045231353
1520503231.547512 0.174922317 0.092459194 -0.048164751 0.978727639 0.056534164 0.188420966 0.058255140
1520503231.597531 0.164145678 0.117491476 -0.047635499 0.958069921 0.053761866 0.271700114 0.073422566
1520503231.647533 0.154803097 0.142649755 -0.046371080 0.933793783 0.051236641 0.343117595 0.087603115
1520503231.697534 0.146984160 0.166719198 -0.044988014 0.908772528 0.050399460 0.401946723 0.100156374
1520503231.747536 0.140428409 0.190204859 -0.043210257 0.883796275 0.049639471 0.451756150 0.111159779
1520503231.797537 0.147604436 0.215986386 -0.044413254 0.861874104 0.048130024 0.490542442 0.119267523
1520503231.847539 0.143021166 0.235391453 -0.041636113 0.846358240 0.045085117 0.516009569 0.124013506
1520503231.897540 0.127165020 0.245633021 -0.042409126 -0.841849923 -0.039242767 -0.523372650 -0.125816807
1520503231.947542 0.124929570 0.259340018 -0.038596895 -0.852951050 -0.030472392 -0.505237937 -0.127595574
1520503231.997700 0.123803459 0.272282332 -0.035053529 -0.876763105 -0.021134453 -0.461817026 -0.132532567
1520503232.047701 0.125523165 0.285220414 -0.032851651 -0.906124830 -0.011151364 -0.399826109 -0.137668282
1520503232.097703 0.128822014 0.300143182 -0.023659224 0.935207546 -0.001973323 0.326109439 0.137970001
1520503232.147704 0.124678031 0.308198392 -0.015957996 0.960001767 -0.014899159 0.244844526 0.135003388
1520503232.197706 0.121276565 0.316987216 -0.008720424 0.977861106 -0.017746463 0.163010225 0.130001903
1520503232.247708 0.114885382 0.325262010 -0.002514425 0.988823593 -0.011991836 0.082295798 0.123740330
1520503232.297709 0.107755847 0.332824737 0.002144736 0.993143380 -0.003269927 0.003588255 0.116802163
1520503232.347711 0.101691931 0.339793712 0.005107109 0.991485178 0.003593537 -0.072683156 0.107988760
1520503232.397563 0.096105210 0.345958799 0.006037715 0.984979272 0.007931645 -0.145283386 0.092982978
1520503232.447564 0.091846131 0.351163149 0.005636475 0.973264813 0.014125990 -0.216353595 0.075810626
1520503232.497566 0.076671600 0.347959459 0.002956043 -0.957238674 -0.026241239 0.281603307 -0.060869887
1520503232.547566 0.088302046 0.355141729 -0.000331009 0.937362134 0.041762538 -0.342380822 0.048821092
1520503232.597569 0.075260952 0.347516686 -0.005206259 -0.915495753 -0.052975915 0.397071391 -0.037356745
1520503232.647569 0.061915554 0.345845252 -0.007924147 0.895791948 0.060497750 -0.439644337 0.024694376
1520503232.697570 0.059685983 0.341084361 -0.014610451 0.884995341 0.064451016 -0.460843831 0.015883679
1520503232.747573 0.058264684 0.332901537 -0.021646537 0.889568865 0.063000135 -0.452316344 0.010404282
1520503232.797523 0.057122730 0.321569443 -0.028036203 0.907903910 0.055306785 -0.415489912 0.004453697
1520503232.847524 0.055350162 0.308983296 -0.034081202 0.933652222 0.044359166 -0.355421245 0.001279820
1520503232.897526 0.052504420 0.294879109 -0.039583430 0.959473789 0.033117030 -0.279845417 0.000201879
1520503232.947527 0.071962632 0.272312373 -0.040578593 0.980134964 0.023999654 -0.196861997 0.002224154
1520503232.997529 0.077858977 0.257097483 -0.044429138 -0.993601799 -0.017577250 0.111247003 -0.008406364
1520503233.047530 0.087990999 0.241887391 -0.047275160 0.999415934 0.017013760 -0.024239922 0.017055042
1520503233.097532 0.096116133 0.227399752 -0.050743576 0.997376084 0.021902326 0.063896678 0.026049588
1520503233.147534 0.103576250 0.213669345 -0.053609498 0.987566650 0.030358162 0.150216922 0.035004959
1520503233.197546 0.110170275 0.200447783 -0.054957718 0.972143173 0.035904910 0.227369428 0.044178665
1520503233.247548 0.116352722 0.187262133 -0.054974843 0.951961339 0.035536397 0.299236536 0.054446295
1520503233.297549 0.123348415 0.174300969 -0.054037705 0.926387906 0.027160870 0.369353861 0.068157792
1520503233.347551 0.131903797 0.161994234 -0.052730031 0.897388816 0.014695557 0.432295322 0.087167747
1520503233.397552 0.140948772 0.148893327 -0.051854528 0.866893828 0.006080146 0.487367034 0.104554027
1520503233.447554 0.163872495 0.135029927 -0.052117296 0.838089705 0.003756217 0.533302784 0.114802748
1520503233.497555 0.173151612 0.119425490 -0.053721104 0.814469516 0.003814104 0.567695737 0.119776756
1520503233.547557 0.183976501 0.101940982 -0.055843018 0.800305068 0.001348443 0.587075949 0.121868037
1520503233.597559 0.194119796 0.081931405 -0.058412366 0.802935660 -0.004049367 0.582909882 0.124475487
1520503233.647679 0.186415821 0.060764790 -0.063945003 -0.824479878 0.009251838 -0.550952792 -0.128834590
1520503233.697681 0.212774426 0.036632262 -0.063372262 0.858120859 -0.010085957 0.495615572 0.133761704
1520503233.747683 0.212710083 0.009540902 -0.074007615 0.893496454 -0.004744153 0.428412706 0.134551629
1520503233.797684 0.221425921 -0.014419580 -0.074963778 0.927138090 0.003961582 0.350599498 0.132209331
1520503233.847686 0.233574942 -0.037456714 -0.074605569 0.955632210 0.013465401 0.263047963 0.131877363
1520503233.897688 0.228115499 -0.054880913 -0.069552429 -0.975341260 -0.021415170 -0.173920974 -0.134173319
1520503233.947689 0.245843858 -0.073031619 -0.067439601 -0.986180007 -0.026529215 -0.090273701 -0.136367038
1520503233.997690 0.256584436 -0.093257502 -0.062003460 -0.990285218 -0.029407352 -0.008342225 -0.135650009
1520503234.047657 0.273827791 -0.110355012 -0.059344962 -0.988220036 -0.030826198 0.071618326 -0.131688684
1520503234.097659 0.284364402 -0.126627326 -0.052762363 -0.980287850 -0.035630636 0.149162948 -0.124565706
1520503234.147660 0.294300556 -0.142562717 -0.050619222 0.967289686 0.041736957 -0.222220868 0.115007348
1520503234.197661 0.308052301 -0.155810997 -0.048988342 0.950335264 0.050301652 -0.289182872 0.103469878
1520503234.247664 0.322003335 -0.168486670 -0.048406728 0.930570841 0.060321148 -0.349372327 0.091314390
1520503234.297664 0.335990012 -0.180085510 -0.047878504 0.907585859 0.068305053 -0.406904638 0.077788144
1520503234.347666 0.349500626 -0.190612063 -0.047213167 0.882208705 0.074146710 -0.460665315 0.063226610
1520503234.397668 0.363021731 -0.200143591 -0.046005145 0.857655883 0.077318750 -0.505771756 0.051412310
1520503234.447541 0.376941442 -0.208915710 -0.044596002 0.837102234 0.076501876 -0.540144205 0.040640175
1520503234.497578 0.386257797 -0.216256693 -0.036325216 0.825409472 0.070164196 -0.559373796 0.029618667
1520503234.547544 0.402138621 -0.225028485 -0.036373824 0.826031685 0.060853172 -0.559999943 0.019203389
1520503234.597546 0.440614849 -0.238212243 -0.044659063 -0.841991067 -0.052074224 0.536895275 -0.009104148
1520503234.647547 0.429699779 -0.245149970 -0.043997645 0.871857941 0.041747209 -0.487961441 -0.003823769
1520503234.697549 0.442872465 -0.256452411 -0.052171536 -0.908004642 -0.034240261 0.417226583 0.016650364
1520503234.747551 0.446497738 -0.259555161 -0.060978979 -0.944069445 -0.034810487 0.326912075 0.025489811
1520503234.797553 0.458149999 -0.262271613 -0.061925951 0.972356081 0.036373571 -0.228792816 -0.029232753
1520503234.847758 0.454328120 -0.262353003 -0.063325129 0.990453124 0.035571951 -0.130252108 -0.027780063
1520503234.897759 0.458257884 -0.258951426 -0.066791169 0.998809040 0.030754801 -0.029978599 -0.023151098
1520503234.947761 0.461697131 -0.251972437 -0.068580143 0.997585654 0.020076321 0.064890206 -0.014462912
1520503234.997762 0.466213465 -0.241086677 -0.069243141 0.988379598 0.016257806 0.151104763 -0.002993634
1520503235.047764 0.471850067 -0.227263689 -0.068679303 0.974071980 0.019716252 0.225260302 0.007279561
1520503235.097765 0.479701996 -0.211075798 -0.066843569 0.955379069 0.021993099 0.293985546 0.018432826
1520503235.147767 0.521571040 -0.189825132 -0.072226554 0.933330953 0.018474407 0.357126057 0.031828221
1520503235.197769 0.533584416 -0.170524821 -0.069112532 0.907374859 0.011226350 0.417975754 0.042908795
1520503235.247613 0.546716928 -0.150973901 -0.066830203 0.877851129 0.003366159 0.476012439 0.052710034
1520503235.297615 0.560320020 -0.131170675 -0.065180689 0.845684886 -0.001350462 0.530417383 0.058929235
1520503235.347617 0.576301277 -0.110673741 -0.063258708 0.817148268 -0.002123495 0.572933853 0.063333169
1520503235.397618 0.593171895 -0.090699509 -0.061179250 0.793617666 -0.002776057 0.604595423 0.068027683
1520503235.447620 0.611533463 -0.071254306 -0.059198439 0.782720327 -0.005079415 0.617934227 0.074029870
1520503235.497622 0.634812355 -0.055384073 -0.065012634 0.790109754 -0.008179922 0.608183503 0.075977735
1520503235.547623 0.651751101 -0.042274524 -0.063874781 0.814637244 -0.009933749 0.575230539 0.073331319
1520503235.597624 0.673003912 -0.030755490 -0.064068526 0.850066006 -0.009268212 0.521917403 0.070030168
1520503235.647676 0.681526482 -0.025119372 -0.068439052 -0.888659298 0.006158848 -0.453224480 -0.069529206
1520503235.697735 0.705283999 -0.014996085 -0.071868256 -0.925381422 0.001662436 -0.372211695 -0.071589030
1520503235.747736 0.732553959 -0.003134907 -0.071166046 -0.956281364 0.000215334 -0.282768309 -0.074618734
1520503235.797737 0.751162589 0.012389816 -0.079596683 0.979101419 -0.000276820 0.188937426 0.075253047
1520503235.847739 0.777225971 0.025886847 -0.083270527 0.992174208 0.001170848 0.100438997 0.074169204
1520503235.897741 0.801761687 0.040217731 -0.086739257 0.997559786 0.000342397 0.020945778 0.066600777
1520503235.947742 0.824341595 0.054467529 -0.090558030 0.997703314 -0.005351024 -0.045859221 0.049563292
1520503235.997743 0.842367172 0.067621306 -0.094790138 0.995410681 -0.012618151 -0.093381032 0.016682701
1520503236.047745 0.854929447 0.080787964 -0.099637404 0.991764605 -0.016909482 -0.123226151 -0.030535122
1520503236.097644 0.844960034 0.083961338 -0.102511160 -0.985890329 0.016781805 0.140683234 0.089146011
1520503236.147576 0.845746636 0.105523951 -0.110957786 0.977007926 -0.013265525 -0.147534803 -0.153339848
1520503236.197578 0.844082952 0.121730432 -0.117449015 -0.964782119 0.009409976 0.148276374 0.217073932
1520503236.247579 0.837230444 0.138697475 -0.123733841 0.950897098 -0.005851682 -0.138744041 -0.276605695
1520503236.297581 0.832445502 0.158513442 -0.128722295 0.935241580 -0.004995552 -0.124763660 -0.331258714
1520503236.347583 0.827119827 0.179496482 -0.133052737 0.919123828 -0.000796860 -0.108671546 -0.378683507
1520503236.397584 0.822000384 0.200641572 -0.136902034 0.904119790 0.007935124 -0.093792997 -0.416782320
1520503236.447586 0.818274140 0.219612271 -0.139034986 0.894803047 0.015275245 -0.081385612 -0.438714802
1520503236.497710 0.816039503 0.235990554 -0.139164865 0.892982423 0.019673599 -0.068741076 -0.444376111
1520503236.547711 0.816035748 0.248721808 -0.137287691 0.900012136 0.017488023 -0.056765694 -0.431798607
1520503236.597713 0.815182567 0.252204448 -0.135408804 0.914372444 0.012504964 -0.040874716 -0.402611583
1520503236.647714 0.821119189 0.260489583 -0.132467985 0.931950092 0.010652466 -0.020069264 -0.361874133
1520503236.697715 0.829440653 0.266577542 -0.129523858 0.950575292 0.011490326 -0.003047450 -0.310266584
1520503236.747717 0.839312315 0.270435512 -0.127749041 0.967913985 0.013364336 0.009996463 -0.250726938
1520503236.797719 0.858231902 0.277241945 -0.127216026 -0.981991470 -0.015160822 -0.018740254 0.187381446
1520503236.847720 0.873164237 0.278513610 -0.125720784 -0.992152333 -0.016444536 -0.021822836 0.122012660
1520503236.897859 0.885111570 0.276982069 -0.121321827 -0.998122454 -0.019859824 -0.019219514 0.054661456
1520503236.947860 0.900215626 0.266531765 -0.122853532 0.999548256 0.024757586 0.014351101 0.009187759
1520503236.997863 0.913321018 0.261714101 -0.121387571 0.997079134 0.029075464 0.009622555 0.069966435
1520503237.047864 0.924820542 0.254379839 -0.119732037 0.991647601 0.030318554 0.005134906 0.125257909
1520503237.097866 0.934257984 0.246056095 -0.118064679 0.983852148 0.028060658 0.005588752 0.176681802
1520503237.147867 0.944113493 0.251173586 -0.115775272 -0.974776447 -0.022020988 -0.009483415 -0.221892178
1520503237.197869 0.948440433 0.242754698 -0.114911623 -0.965115547 -0.016922161 -0.014106708 -0.260895908
1520503237.247870 0.949638069 0.234305143 -0.115199722 -0.955915749 -0.017466931 -0.019263305 -0.292487472
1520503237.297655 0.947331309 0.220106736 -0.114929415 0.949617147 0.019809628 0.027486181 0.311575711
1520503237.347656 0.938758254 0.209276646 -0.116248265 0.950092554 0.018752858 0.032619648 0.309690952
1520503237.397658 0.924866676 0.196662590 -0.115661964 0.959470809 0.016370993 0.027711563 0.279963881
1520503237.447660 0.906539500 0.182850927 -0.113361456 0.973427057 0.013472958 0.015738878 0.228058383
1520503237.497661 0.883604288 0.167076141 -0.110778250 0.986764491 0.008176180 0.003913262 0.161906645
1520503237.547662 0.851430595 0.152322277 -0.108766243 -0.996105850 -0.000496649 0.007306484 -0.087861463
1520503237.597664 0.822176218 0.135935485 -0.109427102 -0.999718130 0.005169289 0.017189695 -0.015542441
1520503237.647666 0.791526556 0.126695991 -0.107231982 0.998296142 -0.005759262 -0.025769226 -0.052034847
1520503237.697758 0.757314146 0.116941519 -0.109744400 0.993269265 -0.002667811 -0.026327303 -0.112765275
1520503237.747656 0.722959101 0.109144159 -0.111934893 0.985746980 -0.001141195 -0.021747839 -0.166819602
1520503237.797658 0.688864470 0.103310004 -0.113636568 0.976379097 0.000100942 -0.015032444 -0.215541184
1520503237.847659 0.655652463 0.099121369 -0.114106923 0.965410233 0.002365866 -0.012975588 -0.260401785
1520503237.897661 0.623058558 0.099755757 -0.117057763 -0.954851866 -0.003576019 0.011057966 0.296854943
1520503237.947663 0.591952145 0.098375998 -0.115446672 -0.944855869 -0.005287488 0.006117220 0.327386677
1520503237.997664 0.562418461 0.092439733 -0.109019168 0.938205123 0.006717763 -0.001226571 -0.346012414
1520503238.047666 0.537090957 0.087720223 -0.107656725 0.937969148 0.004263730 0.000659058 -0.346691996
1520503238.097667 0.513319850 0.079662420 -0.104088470 0.945002556 -0.000089495 0.001794035 -0.327058196
1520503238.147722 0.494662076 0.069962755 -0.100038007 0.956800044 -0.000365965 0.005898087 -0.290686965
1520503238.197723 0.482481360 0.058325507 -0.096119188 0.970895171 0.002165427 0.012812056 -0.239152402
1520503238.247725 0.475840658 0.045580097 -0.091862880 0.984130561 0.000904840 0.018908517 -0.176433712
1520503238.297727 0.473840892 0.032819308 -0.088030554 0.994033635 -0.002175465 0.026564907 -0.105767451
1520503238.347728 0.467891276 0.012380327 -0.087506406 -0.998983800 0.002082736 -0.032091539 0.031578742
1520503238.397730 0.475782961 0.002693942 -0.085309908 0.998435736 0.002726832 0.036991384 0.041837983
1520503238.447731 0.479679793 -0.007464411 -0.085294276 0.992353439 0.008745025 0.043100715 0.115328200
1520503238.497733 0.484061569 -0.016069870 -0.085402898 0.981458485 0.011944506 0.048986662 0.184924260
1520503238.547663 0.488627315 -0.022733748 -0.085613884 0.966430545 0.013015960 0.052385654 0.251193970
1520503238.597665 0.491274983 -0.028966766 -0.086692102 0.950115263 0.017386749 0.052777670 0.306909144
1520503238.647667 0.491087824 -0.035057984 -0.088106081 0.934706032 0.022828175 0.054202683 0.350522101
1520503238.697668 0.487890124 -0.041574381 -0.088679962 0.922631919 0.026819970 0.057329062 0.380453020
1520503238.747670 0.481260419 -0.049359351 -0.088549264 0.916224778 0.027332015 0.060891397 0.395066470
1520503238.797671 0.464786470 -0.059412360 -0.088153169 -0.915515184 -0.026137307 -0.062028483 -0.396612406
1520503238.847673 0.451731473 -0.066021986 -0.083205350 0.921144485 0.022293026 0.060751803 0.383803636
1520503238.897675 0.434002221 -0.077522993 -0.079464145 0.933185160 0.011545478 0.056362312 0.354761213
1520503238.947731 0.411739141 -0.089947946 -0.073851041 0.949083865 -0.000672441 0.042915873 0.312085986
1520503238.997732 0.385381371 -0.101048097 -0.066868670 0.965021372 -0.009832254 0.022972776 0.260977894
1520503239.047734 0.355100006 -0.110301971 -0.059355468 0.979116023 -0.019236147 0.005412418 0.202318132
1520503239.097736 0.321395606 -0.121518567 -0.052580949 -0.989583254 0.027623683 0.007157375 -0.141105890
1520503239.147737 0.284473151 -0.125028014 -0.047760010 -0.995958984 0.032923143 0.016001150 -0.082010277
1520503239.197739 0.241389140 -0.121284395 -0.043131780 0.998796701 -0.034767725 -0.023297193 0.025566109
1520503239.247741 0.200519145 -0.116859995 -0.040026397 0.998604059 -0.034475692 -0.029445684 -0.027097989
1520503239.297742 0.159006283 -0.109364972 -0.037861560 0.995815277 -0.031897821 -0.030433588 -0.080052003
1520503239.347580 0.121576570 -0.101572052 -0.041294850 -0.990544260 0.024627175 0.032936137 0.130884856
1520503239.397582 0.082080819 -0.090697914 -0.041933056 -0.982991517 0.013064776 0.038613018 0.179070234
1520503239.447583 0.045973934 -0.080339953 -0.043408949 -0.975272477 0.003975539 0.042743172 0.216796711
1520503239.497585 0.016428873 -0.072189510 -0.043071900 -0.970574379 -0.000629981 0.040898092 0.237302348
1520503239.547587 -0.009963850 -0.068343297 -0.042337634 -0.970827162 0.001946259 0.033316668 0.237446606
1520503239.597588 -0.030863736 -0.069006748 -0.040165365 0.975200117 -0.007173021 -0.020553734 -0.220251799
1520503239.647590 -0.046238221 -0.071452841 -0.037954703 -0.981848955 0.011957129 0.005358525 0.189211607
1520503239.697591 -0.057241514 -0.075449020 -0.035277013 0.988830090 -0.014274422 0.007243817 -0.148185700
1520503239.747686 -0.065739907 -0.078499898 -0.032061208 0.994636536 -0.013277695 0.012658863 -0.101792075
1520503239.797687 -0.072490454 -0.081546955 -0.028438933 0.998228729 -0.010783195 0.014242637 -0.056747254
1520503239.847689 -0.078099549 -0.085655317 -0.024912246 0.999734044 -0.008899366 0.013241356 -0.016655572
1520503239.897691 -0.082964562 -0.090899080 -0.021491006 0.999724627 -0.011044744 0.012311281 0.016647896
1520503239.947692 -0.087917246 -0.096994326 -0.019604363 -0.998927593 0.019086815 -0.012240873 -0.040368658
1520503239.997694 -0.093095250 -0.104263969 -0.016477035 -0.998027205 0.027598785 -0.011947944 -0.055112496
1520503240.047695 -0.097929858 -0.115236819 -0.013391516 0.997366250 -0.030605201 0.012402815 0.064576104
1520503240.097697 -0.105683461 -0.123631589 -0.012625870 0.997033417 -0.028201276 0.015905958 0.069829375
1520503240.147592 -0.115474120 -0.131520852 -0.012161363 0.996884823 -0.023605624 0.023075840 0.071630657
1520503240.197593 -0.127109155 -0.139026582 -0.011861452 0.996797919 -0.020050885 0.030458475 0.071163088
1520503240.247595 -0.140657023 -0.146527752 -0.011610789 0.996966779 -0.018236399 0.034858085 0.067154087
1520503240.297598 -0.156042352 -0.154325709 -0.012168713 0.997381270 -0.017023107 0.036063008 0.060335733
1520503240.347598 -0.173439875 -0.161562234 -0.012996096 0.998061359 -0.015849449 0.035172213 0.048840042
1520503240.397600 -0.193066299 -0.168679953 -0.014476730 0.998857856 -0.013894734 0.032404516 0.032246742
1520503240.447602 -0.215009585 -0.169611707 -0.018276123 0.999493897 -0.008602349 0.028341744 0.011612725
1520503240.497603 -0.239521623 -0.176868603 -0.021536965 0.999669790 -0.001714762 0.023900067 -0.009281887
1520503240.547605 -0.266430080 -0.185490251 -0.025892178 0.999290586 0.005636544 0.020941010 -0.030792333
1520503240.597601 -0.295656830 -0.195718929 -0.031272657 0.998438835 0.012965874 0.017462978 -0.051447928
1520503240.647602 -0.327264547 -0.207379550 -0.036256894 0.997147679 0.019867646 0.013070771 -0.071631104
1520503240.697604 -0.363517821 -0.218908697 -0.039342918 -0.995312452 -0.026650386 -0.010322514 0.092392080
1520503240.747605 -0.399993837 -0.233508155 -0.043798748 -0.993088841 -0.032450944 -0.008505988 0.112469219
1520503240.797607 -0.438125938 -0.250468612 -0.047010303 -0.990720034 -0.035875637 -0.006182236 0.130952731
1520503240.847620 -0.476562679 -0.270427048 -0.048718192 0.988388896 0.035108622 0.004175461 -0.147774801
1520503240.897610 -0.517144799 -0.290665716 -0.048820294 0.986102998 0.031559549 0.003106834 -0.163080543
1520503240.947611 -0.558091819 -0.312083751 -0.046679825 0.984132648 0.026905192 0.001555970 -0.175375551
1520503240.997819 -0.599277198 -0.334423900 -0.041613460 0.982422352 0.022463411 0.002897919 -0.185292691
1520503241.047820 -0.639995456 -0.356669456 -0.034552008 0.980642080 0.017582441 0.004029557 -0.194976389
1520503241.097822 -0.678968370 -0.378619134 -0.025628436 0.978956819 0.017726809 0.003186276 -0.203271225
1520503241.147825 -0.715925932 -0.401932985 -0.016623689 0.978206098 0.018088069 -0.000599424 -0.206846431
1520503241.197825 -0.751615167 -0.428872049 -0.005047411 0.977624714 0.015525116 0.003332486 -0.209756672
1520503241.247827 -0.786315560 -0.455764830 0.002372677 0.977109492 0.010985694 0.008377898 -0.212287858
1520503241.297828 -0.820293665 -0.485140920 0.007403289 0.976503551 0.008537686 0.010517033 -0.215075299
1520503241.347830 -0.854067087 -0.517532885 0.009898646 0.976211369 0.007722250 0.008490896 -0.216517091
1520503241.398048 -0.888039231 -0.553210139 0.009953652 0.976236224 0.007387358 0.005992722 -0.216500401
1520503241.448050 -0.922265768 -0.591535032 0.009752615 0.976288199 0.004885505 0.004178338 -0.216379598
1520503241.498052 -0.956263125 -0.631689787 0.010430325 0.976131141 -0.000229316 0.003660538 -0.217150986
1520503241.548053 -0.988359571 -0.667123020 0.012724284 -0.975543499 0.003627567 -0.006183174 0.219689786
1520503241.598055 -1.023797154 -0.712409556 0.020964593 0.974169910 -0.003767559 0.009831171 -0.225570753
1520503241.648057 -1.057370067 -0.751352608 0.029333562 0.972059488 0.002713327 0.012410296 -0.234390602
1520503241.698058 -1.090382457 -0.788190305 0.040186524 0.970323682 0.010461805 0.014369632 -0.241155624
1520503241.748059 -1.123145580 -0.823608220 0.052087888 0.968984723 0.010815688 0.017295454 -0.246277466
1520503241.798133 -1.155539393 -0.858534038 0.063674048 0.968221307 0.005887947 0.019264948 -0.249282509
1520503241.848134 -1.188165903 -0.893963039 0.072320305 0.967839956 0.000249307 0.021336012 -0.250660479
1520503241.898136 -1.219997406 -0.923935950 0.072981305 -0.967750132 0.004264789 -0.022058180 0.250908434
1520503241.948137 -1.254436731 -0.965940952 0.074792475 0.968116581 -0.005532306 0.020523187 -0.249596789
1520503241.998139 -1.287045598 -1.005580783 0.072888568 0.968885303 -0.004195896 0.017380280 -0.246863753
1520503242.048140 -1.318874955 -1.047189474 0.070663363 0.970510066 -0.004267872 0.016289216 -0.240472019
1520503242.098141 -1.349678874 -1.090804815 0.069763772 0.973201752 -0.008857520 0.017586686 -0.229108632
1520503242.148143 -1.378835440 -1.134970188 0.071416400 0.975716591 -0.016002795 0.022513591 -0.217288315
1520503242.198561 -1.404931545 -1.175453663 0.072821207 -0.977651298 0.021551823 -0.027815139 0.207267731
1520503242.248559 -1.430168509 -1.220884323 0.078737870 0.980109096 -0.016645348 0.028116748 -0.195751622
1520503242.298561 -1.451962590 -1.263513923 0.086472705 0.982842624 -0.010182969 0.025886767 -0.182336420
1520503242.348562 -1.470988750 -1.306887627 0.095189303 0.985656023 -0.008232595 0.025627900 -0.166606382
1520503242.398563 -1.486911416 -1.350520134 0.104066990 0.988078356 -0.006823272 0.026563367 -0.151489466
1520503242.448608 -1.501984835 -1.391807795 0.112470537 -0.989851356 0.006358815 -0.026650090 0.139440730
1520503242.498566 -1.517873883 -1.441591144 0.114189968 0.991342723 -0.008062362 0.026714722 -0.128300205
1520503242.548567 -1.533774972 -1.487648368 0.114275582 -0.992632031 0.009371217 -0.026178420 0.117934935
1520503242.598570 -1.549754024 -1.538043141 0.111213565 -0.993869007 0.009339719 -0.024100373 0.107500657
1520503242.649071 -1.567875147 -1.590920806 0.107959501 0.994621873 -0.011425702 0.022842074 -0.100374795
1520503242.699072 -1.583102226 -1.640665412 0.107521772 0.994945407 -0.015751170 0.023267072 -0.096406750
1520503242.749074 -1.596065640 -1.689286828 0.113618307 -0.995194912 0.017849570 -0.025700627 0.092779577
1520503242.799075 -1.612977266 -1.737266421 0.114685044 0.995388985 -0.014856589 0.028513489 -0.090372056
1520503242.849077 -1.627874970 -1.783833861 0.121718585 0.995442927 -0.012164645 0.032989059 -0.088641107
1520503242.899078 -1.641436815 -1.828075886 0.135853916 -0.995159447 0.010352849 -0.038460422 0.089841150
1520503242.949080 -1.660419583 -1.871311307 0.139732271 0.995337546 -0.006265360 0.035758641 -0.089360282
1520503242.999081 -1.677184820 -1.914489865 0.146603882 0.995728493 -0.001546325 0.031242972 -0.086869121
1520503243.049212 -1.692935705 -1.958788514 0.151539534 -0.996069491 0.002893249 -0.029667735 0.083409004
1520503243.099213 -1.711183786 -2.008995533 0.147945419 0.996206522 -0.009693915 0.030634722 -0.080871433
1520503243.149215 -1.726709366 -2.057917595 0.146537632 -0.996353149 0.014651488 -0.032436855 0.077547863
1520503243.199217 -1.742829800 -2.112324715 0.140340358 0.996754706 -0.015761476 0.033587687 -0.071438462
1520503243.249218 -1.757295251 -2.155176401 0.140940532 -0.997351646 0.016953113 -0.036071137 0.060837798
1520503243.299220 -1.770346165 -2.208778858 0.140727907 -0.997699201 0.023271503 -0.040572729 0.049078882
1520503243.349221 -1.780517101 -2.259019852 0.143744335 -0.997934043 0.030116508 -0.044748563 0.034904983
1520503243.399223 -1.787297964 -2.308043480 0.148913905 -0.998528242 0.025582975 -0.044269867 0.018086025
1520503243.449335 -1.789198399 -2.365447044 0.152629793 0.999034584 -0.015398155 0.041126829 0.001201205
1520503243.499336 -1.787977695 -2.413211107 0.158707485 0.998875201 -0.008346197 0.040371090 0.023429155
1520503243.549338 -1.782602429 -2.460777998 0.164243996 0.998072326 -0.006933533 0.042541414 0.044652812
1520503243.599339 -1.774402499 -2.508858681 0.167246521 0.996732175 -0.009658062 0.046759743 0.065155238
1520503243.649341 -1.763765097 -2.558019400 0.167023078 0.994809747 -0.013488334 0.050161533 0.087496005
1520503243.699343 -1.749948978 -2.612118006 0.163294017 0.992449999 -0.016342582 0.050664213 0.110494837
1520503243.749344 -1.736083388 -2.662094355 0.160908014 0.990073144 -0.019145621 0.050088227 0.129922509
1520503243.799346 -1.723143339 -2.706734657 0.161974475 -0.988127053 0.023638198 -0.049940433 -0.143360168
1520503243.849787 -1.707286477 -2.754734278 0.163252518 -0.986525476 0.025599748 -0.050444577 -0.153517321
1520503243.899784 -1.688797712 -2.808716774 0.162236780 0.985136926 -0.022338316 0.054689232 0.161292851
1520503243.949788 -1.675283670 -2.844487667 0.170302898 -0.983670533 0.015882833 -0.060560785 -0.168737829
1520503243.999788 -1.656702518 -2.892896414 0.174510330 -0.982034326 0.013449441 -0.065578640 -0.176428840
1520503244.049863 -1.638357043 -2.937893391 0.179731742 0.980059326 -0.015304433 0.065067351 0.187124819
1520503244.099792 -1.621185184 -2.973640442 0.187163517 -0.977191091 0.018233858 -0.062768534 -0.202052832
1520503244.149792 -1.598504663 -3.018032789 0.186169952 -0.973293900 0.021809848 -0.061621204 -0.220059544
1520503244.199794 -1.574469209 -3.061029434 0.179147452 0.968677700 -0.024511034 0.060376950 0.239619449
1520503244.251232 -1.547230005 -3.100800991 0.171298802 0.963280201 -0.021202067 0.059253898 0.261018783
1520503244.301234 -1.517796993 -3.138327122 0.161665648 0.956832767 -0.015269163 0.059817616 0.284006804
1520503244.351236 -1.485605359 -3.175122261 0.152050033 0.948635399 -0.013397817 0.060771860 0.310190588
1520503244.401237 -1.451314449 -3.209863424 0.144905329 0.938803017 -0.017636556 0.061291326 0.338498443
1520503244.451239 -1.415095568 -3.244256020 0.138846144 0.928700030 -0.022129651 0.059258722 0.365397036
1520503244.501240 -1.378075719 -3.270109653 0.139351398 -0.918219447 0.015603147 -0.057547446 -0.391558379
1520503244.551242 -1.339895129 -3.296429157 0.139198318 0.905570388 -0.002648345 0.055309054 0.420566440
1520503244.601243 -1.298771024 -3.314991474 0.143335119 -0.889854968 -0.002798404 -0.055714533 -0.452820361
1520503244.653987 -1.255817533 -3.334791899 0.144452929 0.871261179 0.004958010 0.055309717 0.487668276
1520503244.703988 -1.212798595 -3.348923206 0.146415934 0.853923798 0.006720663 0.056357294 0.517293870
1520503244.753990 -1.168093204 -3.363018513 0.144314721 0.837933302 0.006425269 0.055189077 0.542937100
1520503244.803992 -1.121232986 -3.377545595 0.138897479 0.823996782 0.005015232 0.051729459 0.564205945
1520503244.853993 -1.075206518 -3.391327381 0.131036341 0.812501192 0.004079195 0.047599282 0.580998778
1520503244.903995 -1.025899410 -3.406624317 0.125823379 0.802975655 0.002951536 0.044313233 0.594354928
1520503244.953997 -0.976865292 -3.422946215 0.122620076 0.796302855 0.001708209 0.044772204 0.603236616
1520503245.003998 -0.928951740 -3.440617323 0.121987194 0.792219400 0.004900644 0.048507649 0.608285666
1520503245.054000 -0.887489557 -3.455973387 0.123432621 0.788483977 0.014199661 0.054978579 0.612428606
1520503245.106285 -0.841169119 -3.474753141 0.128324538 0.784382284 0.019162076 0.062358394 0.616837740
1520503245.156286 -0.797164679 -3.492560148 0.132692784 0.780490100 0.017220629 0.062154517 0.621832430
1520503245.206287 -0.752348900 -3.509758472 0.133958459 0.775559127 0.012258096 0.055251677 0.628732920
1520503245.256289 -0.712814093 -3.522586823 0.129795998 0.770184934 0.008413210 0.050744720 0.635743260
1520503245.306291 -0.664695024 -3.536448002 0.122774690 0.765067577 0.008589705 0.050602961 0.641901195
1520503245.356292 -0.613820076 -3.549160480 0.113159448 0.760455489 0.010718958 0.052851122 0.647147059
1520503245.406294 -0.559996843 -3.561360359 0.102651596 0.755626917 0.009405423 0.053691495 0.652730286
1520503245.456296 -0.511043072 -3.571033716 0.092081256 0.749805987 0.006044477 0.050439119 0.659704745
1520503245.506585 -0.452388763 -3.582065821 0.085251369 0.743384063 0.002416270 0.044663932 0.667367637
1520503245.556586 -0.393484116 -3.591960669 0.080504358 0.737093210 0.001934368 0.043242227 0.674403429
1520503245.606588 -0.325557709 -3.602550030 0.080160633 0.729364216 0.010796294 0.046524365 0.682456493
1520503245.656693 -0.287393093 -3.602069616 0.083295509 0.720575392 0.018095316 0.049359106 0.691380858
1520503245.706591 -0.229976177 -3.604316473 0.087881878 0.711585820 0.017781636 0.051887088 0.700455070
1520503245.756592 -0.172718287 -3.604402542 0.091722131 0.702600837 0.015827401 0.051609512 0.709533691
1520503245.806594 -0.106464624 -3.606076002 0.092949398 0.694434881 0.014204259 0.050232816 0.717659533
1520503245.856595 -0.064065695 -3.600872278 0.087032169 -0.686989129 -0.012347822 -0.046288077 -0.725086808
1520503245.906597 -0.002767801 -3.599669218 0.079338729 -0.680850625 -0.009487973 -0.041185860 -0.731201828
1520503245.956599 0.058973312 -3.598420858 0.071189225 -0.676631808 -0.006318774 -0.035434756 -0.735441267
1520503246.006599 0.120285273 -3.597265720 0.064866096 -0.674538493 -0.002098334 -0.028315667 -0.737693548
1520503246.056602 0.171813250 -3.595597744 0.061156146 -0.673806012 0.002692082 -0.023509398 -0.738529384
1520503246.106603 0.231014013 -3.594632864 0.060492516 -0.674683988 0.003053550 -0.026633888 -0.737619817
1520503246.156605 0.289112806 -3.594578981 0.063079484 -0.675702631 -0.001900429 -0.034080200 -0.736383736
1520503246.206606 0.347106218 -3.596543550 0.066572160 -0.678605258 -0.001444457 -0.039327290 -0.733448148
1520503246.256608 0.411295652 -3.598481655 0.072914928 0.682454824 -0.000420058 0.037595935 0.729960203
1520503246.305753 0.453178644 -3.605201721 0.069844529 -0.686115563 -0.000787171 -0.034482069 -0.726674557
1520503246.355755 0.510292053 -3.610945463 0.064481288 -0.689309835 -0.003003015 -0.033214591 -0.723698676
1520503246.405757 0.575347900 -3.618077993 0.053094652 0.692734420 0.002237431 0.032337833 0.720463991
1520503246.455758 0.629959583 -3.622449636 0.038922951 -0.695550203 -0.001155401 -0.030514754 -0.717828333
1520503246.505760 0.697774887 -3.629393101 0.024685621 0.695712507 0.003142118 0.027948810 0.717769504
1520503246.555763 0.749654293 -3.631373405 0.012999430 -0.693405986 -0.006538612 -0.023702089 -0.720127523
1520503246.605763 0.812253952 -3.635429621 0.005895447 -0.689629138 -0.006164607 -0.018718153 -0.723894596
1520503246.655765 0.874417543 -3.638312578 0.003174420 -0.685440600 -0.005041644 -0.019963177 -0.727837384
1520503246.704772 0.939195633 -3.640926600 0.006285377 0.679894447 0.010257157 0.023333102 0.732867002
1520503246.754773 0.990397692 -3.637943268 0.011095524 -0.673007667 -0.013028324 -0.022362292 -0.739182591
1520503246.804774 1.050939798 -3.635454416 0.016190574 -0.665164769 -0.011180939 -0.021492796 -0.746303499
1520503246.854776 1.111679316 -3.631834269 0.018169399 -0.658346415 -0.006756533 -0.023760438 -0.752309740
1520503246.904778 1.173868179 -3.628173351 0.014784820 -0.653601348 -0.001046342 -0.025230458 -0.756417692
1520503246.954779 1.231360435 -3.624103546 0.006523590 -0.650673449 0.002015616 -0.022143954 -0.759032130
1520503247.004781 1.295676947 -3.620677948 -0.003814286 -0.649226427 0.000970708 -0.016447114 -0.760416687
1520503247.054782 1.359505892 -3.617364168 -0.013383325 -0.648792744 0.000039084 -0.010111906 -0.760898054
1520503247.103934 1.421481371 -3.614453793 -0.020953605 -0.650369108 0.002188736 -0.006710369 -0.759585619
1520503247.153935 1.475952864 -3.611456394 -0.025513075 -0.653727293 0.003778585 -0.008758513 -0.756670058
1520503247.203941 1.537101507 -3.608994722 -0.025809444 -0.657502413 0.002972671 -0.016137522 -0.753273785
1520503247.253938 1.597764730 -3.608881950 -0.022945717 -0.662273467 0.006552976 -0.021865105 -0.748914540
1520503247.303940 1.665897608 -3.610460520 -0.018285692 0.666252434 -0.008536920 0.023086181 0.745320022
1520503247.353941 1.708444118 -3.616056204 -0.016525341 -0.668675721 0.004885409 -0.022723557 -0.743190825
1520503247.403943 1.768609762 -3.620967388 -0.019753596 -0.671377242 0.001631308 -0.021338355 -0.740806818
1520503247.453944 1.830991268 -3.625759840 -0.028849792 -0.676266611 0.004127431 -0.018911313 -0.736402631
1520503247.503946 1.895340681 -3.630495310 -0.041122399 -0.681597888 0.008295137 -0.016575454 -0.731492221
1520503247.552769 1.952321053 -3.634473085 -0.053247876 0.684251070 -0.009111866 0.015223044 0.729030728
1520503247.602770 2.017924786 -3.638669491 -0.063149482 0.683440328 -0.009032717 0.013220672 0.729830801
1520503247.652772 2.087899446 -3.642336845 -0.068895802 0.680508614 -0.011673196 0.009216538 0.732589126
1520503247.702773 2.150105238 -3.644505024 -0.069564208 0.678185046 -0.013438011 0.010806695 0.734688818
1520503247.752774 2.199972630 -3.644006491 -0.066317230 -0.675373793 0.006599502 -0.010561339 -0.737370491
1520503247.802776 2.259456396 -3.642230511 -0.061154298 -0.671568453 -0.000211830 -0.012413346 -0.740838468
1520503247.852777 2.317677975 -3.637825489 -0.055421963 -0.666050673 -0.005531098 -0.015127458 -0.745732546
1520503247.902778 2.380480289 -3.632814646 -0.052664466 0.660885930 0.004193631 0.015584029 0.750312805
1520503247.951603 2.431948185 -3.625386953 -0.057217751 -0.657970548 0.003425342 -0.012144885 -0.752937913
1520503248.001605 2.495183229 -3.619771481 -0.067122370 -0.655655146 0.011321500 -0.007627466 -0.754937172
1520503248.051606 2.559276581 -3.614056587 -0.079591259 -0.653081000 0.012966288 -0.005225415 -0.757159054
1520503248.101608 2.624510527 -3.608929157 -0.091054663 0.651892900 -0.010618479 0.006063025 0.758212507
1520503248.151610 2.681465149 -3.602331400 -0.100678429 -0.654060662 0.010245223 -0.009217408 -0.756316543
1520503248.201611 2.744686604 -3.596411467 -0.104115397 -0.656499267 0.006084629 -0.016173437 -0.754128814
1520503248.251613 2.813395977 -3.591582060 -0.100102656 0.656709909 -0.000913788 0.023789586 0.753767490
1520503248.301615 2.874973536 -3.587035656 -0.094242007 0.658690989 -0.005440824 0.025814313 0.751950979
1520503248.350634 2.918333292 -3.583528996 -0.088984758 -0.661372840 0.010502425 -0.022569343 -0.749644160
1520503248.400635 2.983735085 -3.582996130 -0.083077088 0.663077056 -0.010613857 0.018054910 0.748258114
1520503248.450638 3.034594059 -3.581484079 -0.085964583 -0.665456474 0.009804347 -0.013531917 -0.746249616
1520503248.500638 3.098687172 -3.579573154 -0.094338641 0.669104695 -0.013397311 0.011155698 0.742963672
1520503248.550639 3.148454189 -3.579017401 -0.109364614 0.673605025 -0.017145071 0.010466897 0.738818467
1520503248.600642 3.210673094 -3.577816963 -0.124949843 0.675766766 -0.015672520 0.009979014 0.736881316
1520503248.650643 3.273957491 -3.576296091 -0.139904529 0.676803887 -0.010197776 0.010551652 0.736017108
1520503248.700644 3.336241722 -3.574863434 -0.152219504 -0.679698050 0.005827212 -0.013283965 -0.733348608
1520503248.749802 3.393409729 -3.573265076 -0.159058660 -0.682028294 -0.000663511 -0.017061623 -0.731126428
1520503248.799809 3.453073263 -3.569977760 -0.156655565 -0.679340184 -0.008888173 -0.016505096 -0.733583987
1520503248.849805 3.511402369 -3.563965321 -0.150560468 -0.671226144 -0.010063414 -0.012875897 -0.741072536
1520503248.899807 3.568305731 -3.555578232 -0.143585593 0.659844935 0.004385241 0.011957523 0.751293838
1520503248.949808 3.619239330 -3.545408964 -0.139799684 -0.649449408 0.004750225 -0.014188685 -0.760257661
1520503248.999810 3.676397324 -3.535429239 -0.141797364 -0.641913235 0.014808967 -0.014905496 -0.766489446
1520503249.049811 3.740555048 -3.526128769 -0.149924427 0.637305677 -0.021193849 0.012917872 0.770211339
1520503249.099813 3.801470041 -3.517386436 -0.162311539 0.635821104 -0.021158608 0.010178351 0.771479309
1520503249.149192 3.852311373 -3.508264303 -0.175095439 -0.637846231 0.016729418 -0.007700589 -0.769943595
1520503249.199193 3.913830519 -3.500151634 -0.185620129 -0.642871678 0.012602301 -0.007573924 -0.765832841
1520503249.249195 3.979821682 -3.491856337 -0.192629442 0.647599816 -0.009488294 0.013564425 0.761800826
1520503249.299196 4.039572716 -3.483674765 -0.193757579 0.650689185 -0.005787781 0.022989830 0.758974016
1520503249.349198 4.088319778 -3.476436138 -0.190670967 -0.653122723 0.006549429 -0.026462231 -0.756761312
1520503249.399199 4.146301746 -3.471551895 -0.185035333 -0.654981613 0.007628744 -0.024116786 -0.755221426
1520503249.449201 4.203296185 -3.467875957 -0.181294233 -0.655690610 0.005726715 -0.021256479 -0.754708707
1520503249.499202 4.260740757 -3.464293480 -0.183446199 -0.655423105 0.003610988 -0.019216785 -0.755008817
1520503249.549204 4.313999176 -3.459216595 -0.193197340 -0.655830801 0.005438907 -0.018317498 -0.754666090
1520503249.598951 4.373555660 -3.454649448 -0.206717208 -0.656272948 0.007994318 -0.018356571 -0.754257917
1520503249.648952 4.438075066 -3.450658798 -0.220890135 0.655010581 -0.006988899 0.017674351 0.755380690
1520503249.698954 4.501509190 -3.444008350 -0.232808173 0.650945842 -0.006094872 0.014428668 0.758962572
1520503249.748956 4.551965237 -3.437708378 -0.239877924 -0.646596491 0.010868713 -0.011346872 -0.762670338
1520503249.798957 4.612241268 -3.431836605 -0.241373971 -0.642186284 0.012664416 -0.011648674 -0.766355515
1520503249.848959 4.676446915 -3.425260067 -0.236899570 0.637246370 -0.007716089 0.013874282 0.770496666
1520503249.898960 4.734279156 -3.416750431 -0.231049821 0.631147802 -0.007612266 0.014209306 0.775495112
1520503249.948962 4.778224945 -3.407259464 -0.225443974 -0.624112606 0.010352769 -0.014698688 -0.781127632
1520503249.999180 4.834722519 -3.396211624 -0.222595111 -0.618613541 0.013177246 -0.016253008 -0.785416782
1520503250.049181 4.900459290 -3.384094238 -0.225311041 0.617038310 -0.017190984 0.017002383 0.786561608
1520503250.099183 4.950731277 -3.374916077 -0.234278411 0.617756009 -0.018850807 0.013718687 0.786024213
1520503250.149184 5.002482891 -3.365800858 -0.245588616 -0.619208753 0.015931692 -0.010656992 -0.784992516
1520503250.199184 5.063071251 -3.355321884 -0.257447600 -0.621628642 0.010975767 -0.009868187 -0.783173084
1520503250.249187 5.123881340 -3.345088959 -0.266711086 -0.625531137 0.010381159 -0.011288152 -0.780048430
1520503250.299188 5.182375431 -3.335148335 -0.271310031 0.630262077 -0.012166855 0.013832041 0.776163936
1520503250.349190 5.235344887 -3.326953411 -0.270240188 -0.635353446 0.012030844 -0.019052077 -0.771892726
1520503250.399653 5.293764114 -3.317534447 -0.265444577 -0.641257703 0.017279694 -0.024641789 -0.766735137
