# name: debug
# type: sparse matrix
# nnz: 106839
# rows: 1617
# columns: 1617

1 1 269337374.443853676
2 1 -64781846.256720968
3 1 -9669888.090179147
4 1 -917455148.264927626
5 1 -2663293886.536861420
6 1 -2279377679.757060051
7 1 -1710105.958237092
8 1 -15029.809444385
9 1 37321.177585360
10 1 541.326432318
11 1 -49697.575958441
12 1 -150.551407647
67 1 39217.329148541
68 1 1680.529216140
69 1 22.735947106
70 1 469.950442213
71 1 711.874845422
72 1 -341.376463847
100 1 -1384171.872063563
101 1 -90.840884499
102 1 -6067.029525206
103 1 -36.102439672
104 1 -15492.130583072
105 1 630.095093975
106 1 4744051.867197593
107 1 -1316674.903516990
108 1 -1100328.250684508
109 1 6072004.046092805
110 1 -784528.907512549
111 1 -1580151.409731142
112 1 21482681.998977296
113 1 7963822.049511936
114 1 -6392290.997684879
115 1 3843373.616622395
116 1 -1650178.712287775
117 1 -795976.937198235
118 1 6897037.080101944
119 1 3886341.783650379
120 1 -3161360.241084628
121 1 12629152.228373565
122 1 109221.444570496
123 1 -2549744.074101356
124 1 81172933.572858647
125 1 68242312.081980199
126 1 -24563609.221934061
127 1 8920536.806013441
128 1 7371972.897969143
129 1 -5049482.407612858
130 1 11646285.340217948
131 1 9378897.949651040
132 1 -6373521.587864226
133 1 5801172.086950795
134 1 -1337677.601300943
135 1 -1473706.851325634
136 1 12487815.476962395
137 1 749055.495729172
138 1 -2669012.741384904
139 1 154457.991292309
140 1 94035.061018951
141 1 -67296.207463096
142 1 7960645.845939745
143 1 4938571.766507013
144 1 -3862880.536840899
145 1 81996637.461540937
146 1 61622945.491950974
147 1 -18304214.986809906
148 1 13440633.561975349
149 1 478275.863058064
150 1 -2793702.152862035
151 1 -6389911.807766490
152 1 3435260.875109455
153 1 -1273129.140017078
154 1 9632536.589699265
155 1 2343047.195397348
156 1 -3317914.720822117
157 1 552015.255830310
158 1 451397.680968855
159 1 -319606.506862194
160 1 -28117852.949932914
161 1 56192614.623378463
162 1 45569704.852975458
163 1 5498564.733949910
164 1 -1504579.311302543
165 1 -1434734.935364353
166 1 13736994.678842137
167 1 -1029965.972921031
168 1 -48208.362565738
169 1 8979594.965777375
170 1 6630197.391647607
171 1 -4788286.212115061
172 1 16083988.518474607
173 1 42351.294509223
174 1 -1048035.309326737
175 1 143494.087838627
176 1 95425.270743403
177 1 -66473.631310963
178 1 6046166.004444537
179 1 3102271.781621810
180 1 -2625226.215790805
181 1 93944005.647525623
182 1 59846857.747481570
183 1 4904972.483215498
184 1 455128.881351878
185 1 390829.897404285
186 1 -252902.394050003
187 1 10033463.888968388
188 1 9209470.007290265
189 1 -5984959.066238075
190 1 480635.209726000
191 1 455752.957899090
192 1 -283612.525469317
193 1 22384383.873603396
194 1 9057008.081603788
195 1 -6728957.924537130
196 1 131350293.025011733
197 1 123815573.209869578
198 1 -29708921.476123799
199 1 89459.849171619
200 1 70917.078331731
201 1 -48659.945721204
202 1 5940593.577918048
203 1 397056.429685034
204 1 -1692116.222345547
205 1 5068947.597534831
206 1 -542609.073098258
207 1 -1257527.566034971
208 1 83299518.952576116
209 1 60710873.184890270
210 1 -15831055.828513365
211 1 5535711.398499533
212 1 -478104.375016486
213 1 -1439345.626159910
214 1 23447633.052648909
215 1 6206444.777581470
216 1 -4946287.667523397
217 1 -7354261.419287942
218 1 4305033.971453001
219 1 -71727.699737679
220 1 135580746.716209441
221 1 114885171.465836227
222 1 -14190092.594243661
223 1 65060734.257446066
224 1 36391518.877311014
225 1 -5663908.291294044
226 1 97251434.399145827
227 1 79303465.273726508
228 1 -21913526.842278898
229 1 -2458736.832790355
230 1 1678862.903063379
231 1 1066160.066763722
232 1 25901724.524531178
233 1 7972188.467242067
234 1 -5312922.260800830
235 1 3372493.473805671
236 1 -1765883.384434229
237 1 -877594.765098754
238 1 4915828.191141426
239 1 -1458297.850598007
240 1 -1014998.551009226
241 1 4477007.164284563
242 1 -1677594.181522447
243 1 -616849.881449839
244 1 91034994.729144186
245 1 81790329.206471846
246 1 -27862154.328329321
247 1 7294038.594497734
248 1 -819802.450471043
249 1 -1886588.955990656
250 1 14340138.464993296
251 1 1637947.354585980
252 1 -3059907.319739201
253 1 4279869.111391976
254 1 -911781.913071150
255 1 -806265.679172951
256 1 121033114.873166874
257 1 92221548.791349739
258 1 -3609417.872669358
259 1 10111897.377410939
260 1 5346858.895932840
261 1 -4548071.369120633
262 1 -16840249.862344120
263 1 12123759.123989418
264 1 -3433890.015542854
265 1 92518373.367982060
266 1 61940644.320307046
267 1 18537384.003258690
268 1 8909284.640105078
269 1 -1294254.855808709
270 1 944689.920578335
271 1 13074523.968965262
272 1 5456248.214362734
273 1 -5108776.605458226
274 1 26241788.186925136
275 1 5698426.076791604
276 1 -4912375.903964335
277 1 5631077.011233133
278 1 -1437076.506391002
279 1 -1467133.994254279
280 1 17532042.280226808
281 1 5884457.110252032
282 1 -5487057.961761829
283 1 162139953.136686623
284 1 172995917.322219282
285 1 -42295720.961769655
286 1 -7436805.807418738
287 1 4243222.535133713
288 1 -1783216.821035271
289 1 62684650.105275452
290 1 33205538.963977002
291 1 -5579368.703967779
292 1 5166947.672342783
293 1 -1792319.471217413
294 1 -1736499.177934918
295 1 147475584.753618211
296 1 111123961.862595290
297 1 -11965524.631738625
298 1 39557940.475070804
299 1 28043431.237272155
300 1 -16276217.710308988
301 1 -139638234.919074684
302 1 160379786.881647289
303 1 13183975.112475507
304 1 -32049936.616915524
305 1 52884057.949630335
306 1 40345729.239261061
307 1 49912160.248287261
308 1 28550910.625116795
309 1 -7385462.966910887
310 1 8628419.294261806
311 1 79143655.034781218
312 1 77362142.111223832
313 1 4266036.607087004
314 1 -1618535.889265118
315 1 -984650.942971251
316 1 156912936.932133317
317 1 129722591.440139830
318 1 18538245.148612764
319 1 352163093.615141511
320 1 473593507.111232877
321 1 -26106152.242633790
322 1 73179411.344484821
323 1 45854664.836516835
324 1 -9520126.072248012
325 1 5471575.051719795
326 1 -840651.420769594
327 1 -1160225.146446669
328 1 20467678.113209262
329 1 5056018.705377386
330 1 3658120.125988607
331 1 4601994.990427665
332 1 -2443311.517797742
333 1 -4243787.518720607
334 1 28131892.564084139
335 1 7775809.495052564
336 1 -3973160.533848445
337 1 -64771751.418212257
338 1 117252474.387636378
339 1 69953083.351448730
340 1 -4975661.734336037
341 1 2563995.990605435
342 1 -608731.159691575
343 1 163425126.813754439
344 1 150305421.161464095
345 1 16875866.307652265
346 1 18743.678448524
347 1 6329.514871464
348 1 -4184.468682976
349 1 19168.351908719
350 1 7513.212183197
351 1 -5714.883362158
352 1 34280.984419699
353 1 17548.269409736
354 1 -14125.286910951
355 1 1385.002384625
356 1 429.099013073
357 1 -284.542370554
358 1 10232.698809287
359 1 2762.307781116
360 1 -2031.127453225
361 1 106072.564433589
362 1 59399.052840109
363 1 -43326.625994123
367 1 19963.475390684
368 1 6437.966102885
369 1 -4762.057574147
370 1 125259.544076027
371 1 76317.439452196
372 1 -58013.788556271
373 1 53108.137566001
374 1 23800.822304608
375 1 -18044.868718145
376 1 12719.263449878
377 1 4652.929098204
378 1 -3575.482716332
379 1 185675.424417186
380 1 171922.871892228
381 1 -110031.214599822
382 1 7390.318594127
383 1 2422.631662291
384 1 -1856.360128718
385 1 21866.786408405
386 1 10258.426779161
387 1 -8267.698673003
391 1 262467.420197452
392 1 204836.430717665
393 1 -136705.341504962
394 1 44031.807356611
395 1 21590.751864519
396 1 -16084.856318410
397 1 299703.967671750
398 1 224188.749311728
399 1 -159120.749391800
400 1 2884304.861620431
401 1 -1702032.575939500
402 1 -1229386.599870806
403 1 6301355.440977860
404 1 -1202573.657795283
405 1 -1400292.489930362
427 1 20024.765092752
428 1 6030.951425317
429 1 -4631.871020220
430 1 2795.535245450
431 1 1642.833489659
432 1 -1368.793967704
433 1 63288.053755966
434 1 36017.305602248
435 1 -28800.520379677
445 1 6196091.099311970
446 1 -671156.818614914
447 1 -1632153.914415749
448 1 6972.343094214
449 1 2104.414837412
450 1 -1553.463584147
454 1 8968599.926811228
455 1 953092.697111163
456 1 -2716528.932260583
466 1 32381.410289897
467 1 9228.413254079
468 1 -6229.835972450
481 1 193781.773080006
482 1 137241.575137266
483 1 -112197.712182022
505 1 11282.005885826
506 1 2701.101654608
507 1 -1803.399110380
508 1 232478.455643625
509 1 209523.059369491
510 1 -146013.255402314
517 1 2396.183533438
518 1 524.432991048
519 1 -347.430037259
544 1 40535.357355967
545 1 10552.671079718
546 1 -7184.162625188
562 1 907328.073493049
563 1 -98623.477882732
564 1 596458.573223750
565 1 3587.101146325
566 1 1909.458795548
567 1 -1736.039508378
568 1 14031.284554362
569 1 5976.308615210
570 1 -5486.471744189
574 1 14119.002097014
575 1 2627.514650644
576 1 -1715.907037308
583 1 18604.860610288
584 1 461.092036044
585 1 217.906728382
589 1 2942.694847855
590 1 1705.893313015
591 1 -1521.682238954
595 1 6696581.613023962
596 1 -82823.964656019
597 1 -1932824.735591224
598 1 18133.595487055
599 1 11888.074313527
600 1 -10406.893670115
619 1 75839.463430067
620 1 58950.932901006
621 1 -46599.162119307
628 1 43696.485438706
629 1 5315.096674805
630 1 -3022.521966630
643 1 56294.010368326
644 1 485.590328172
645 1 1184.848583047
664 1 110277.462594881
665 1 88911.047165694
666 1 -66265.013649901
673 1 215062.079580392
674 1 200006.433031038
675 1 -155825.660457914
682 1 7741.647699734
683 1 464.841109997
684 1 -120.964091476
685 1 10889610.659353970
686 1 8323097.721384555
687 1 -5818864.667377245
688 1 256604.108135926
689 1 210694.801474649
690 1 -162143.176022420
691 1 1845.309085041
692 1 -172.701685176
693 1 220.956374330
697 1 168996.331860187
698 1 108381.906011735
699 1 -79903.497470259
703 1 22828.370772192
704 1 5173.391547516
705 1 -3793.877545310
715 1 5453.841900812
716 1 975.905181158
717 1 -607.048244552
718 1 3515.046877051
719 1 -295.266498809
720 1 348.268950161
721 1 189786.351634761
722 1 128508.072002211
723 1 -100745.931184514
724 1 374639.946835092
725 1 323730.107155419
726 1 -246614.161059866
733 1 41476.279399422
734 1 8079.585725486
735 1 -6143.878505037
736 1 36357.464537279
737 1 11679.871526072
738 1 -10728.859271916
742 1 187462.412192114
743 1 130788.488788664
744 1 -104692.618235138
760 1 156180.953213695
761 1 120290.712064579
762 1 -105520.660542067
763 1 29577.258950106
764 1 195.289945677
765 1 795.433001007
766 1 341351.110690260
767 1 330424.394546649
768 1 -235923.957431274
784 1 18273.770615070
785 1 4201.817654121
786 1 -3173.260541756
796 1 19181.176005244
797 1 488.504490598
798 1 222.327102852
802 1 5905.851801515
803 1 -150.158377427
804 1 336.750340275
811 1 17725.897920537
812 1 67.440644560
813 1 572.031796601
832 1 14898.282060827
833 1 -2153.059323199
834 1 2744.449429382
841 1 13360.673732465
842 1 -10193.768960152
843 1 8531.846288127
844 1 10078629.043109804
845 1 6800076.484284267
846 1 -5015119.039714588
856 1 13772.651138890
857 1 -1801.566882161
858 1 2119.718784685
874 1 1854.045555480
875 1 -311.617645562
876 1 347.722754092
877 1 4616.367628077
878 1 -1272.204889948
879 1 1228.524564792
880 1 8768.470159282
881 1 -572.055078113
882 1 740.756618236
883 1 136790.953974217
884 1 80232.059581319
885 1 -64186.982703588
898 1 63783.510004473
899 1 -45109.626461257
900 1 35283.855211405
952 1 241362.351002997
953 1 -118352.846554601
954 1 85461.071166814
958 1 226463.033144138
959 1 -182595.016461180
960 1 157604.427086121
961 1 9910.496534515
962 1 -4494.766169884
963 1 3531.225494548
964 1 84815.290680971
965 1 -57348.323636539
966 1 53429.431808385
967 1 11706.837732782
968 1 -4607.965689622
969 1 3756.528758948
970 1 181518.759030274
971 1 -97157.013046257
972 1 75306.861463686
973 1 168314.867326748
974 1 -78613.491212635
975 1 63173.522614225
976 1 112852.328381020
977 1 -39305.673820466
978 1 35860.863715622
979 1 80410.688753671
980 1 -47881.791777608
981 1 48097.968079218
982 1 15425.157525425
983 1 -4600.319068425
984 1 4103.577963512
988 1 308106.380357141
989 1 -253367.783948478
990 1 220508.049987258
994 1 12644.765676942
995 1 -1506.321459997
996 1 1583.332680622
997 1 10083.904667525
998 1 -2101.360835647
999 1 1924.610730632
1000 1 5007.772985236
1001 1 -2241.315483140
1002 1 1702.522017128
1003 1 310254.059248765
1004 1 -166686.230513709
1005 1 117263.162800320
1006 1 129550.716033435
1007 1 -45943.327297064
1008 1 34682.681541192
1021 1 130799.012673968
1022 1 -50490.692223366
1023 1 39041.659384460
1024 1 91322.383705684
1025 1 -57773.547249983
1026 1 56887.164257101
1039 1 128929.645393582
1040 1 -114659.470165221
1041 1 99515.107849573
1048 1 162816.193646471
1049 1 -65715.773668758
1050 1 54839.326295643
1063 1 131389.423169981
1064 1 -50499.083695978
1065 1 42948.759662690
1069 1 93979.672456001
1070 1 -61904.302559256
1071 1 45130.356262366
1078 1 16946.059136781
1079 1 -8659.096427099
1080 1 6983.993409145
1084 1 24335.461583304
1085 1 -9037.239346862
1086 1 8383.921554670
1096 1 60908.160957352
1097 1 -4523.433792748
1098 1 5959.269158747
1099 1 12877.151713414
1100 1 -8117.355633499
1101 1 5377.592090045
1426 1 21435.683240712
1427 1 -3381.694264610
1428 1 3417.137513747
1 2 -64781846.256720968
2 2 102662688.833861679
3 2 128383928.770523548
4 2 1993597019.944202662
5 2 262646368.413820177
6 2 922586457.115814447
7 2 17538.863399820
8 2 -1612375.416862796
9 2 -8228.653149569
10 2 49796.347229032
11 2 -38.256626485
12 2 113644.003621990
67 2 6006.039366809
68 2 -96514.134837988
69 2 387.745408860
70 2 159.051585410
71 2 -2553.229534295
72 2 76.372611252
100 2 -17.293923624
101 2 -1384515.334266705
102 2 -1625.652193367
103 2 15224.172450059
104 2 -34.241810295
105 2 34442.600860755
106 2 714992.814482176
107 2 -1657735.982832958
108 2 -6499120.951161532
109 2 384102.381548407
110 2 -1595202.199120877
111 2 -6737621.951375346
112 2 -2276168.773930886
113 2 -4382699.482282246
114 2 -10307486.249781735
115 2 1182837.993098868
116 2 -2030331.557961026
117 2 -6572484.046523167
118 2 -122756.500980637
119 2 -729558.130120031
120 2 -3848361.969153387
121 2 95008.858246739
122 2 -3632521.260187129
123 2 -11046204.583318481
124 2 -16402873.263339896
125 2 -25211709.242618456
126 2 -16449399.107623309
127 2 -132338.468025773
128 2 -705347.612760901
129 2 -3870462.875425171
130 2 -485051.304804098
131 2 -1246839.551920523
132 2 -4627572.887821797
133 2 829422.450989422
134 2 -2062627.283595378
135 2 -7578834.728072790
136 2 -213328.819581656
137 2 -3255827.695776617
138 2 -10033603.072040234
139 2 23027.307035195
140 2 3431.957770833
141 2 -139561.406741382
142 2 -185357.749824909
143 2 -807835.266985206
144 2 -4101235.929275088
145 2 -16601793.733765282
146 2 -26011673.477741100
147 2 -19988459.578345727
148 2 -100649.841428940
149 2 -3682543.617262683
150 2 -11160870.684420777
151 2 10875288.433037618
152 2 -13519306.686708193
153 2 -15016284.816405252
154 2 -431084.567280507
155 2 -1573865.197627450
156 2 -6426514.899998176
157 2 92984.170065347
158 2 60584.498247077
159 2 -432847.216517487
160 2 35002911.891659722
161 2 -69413399.824371904
162 2 -56151098.825032271
163 2 1021677.096872318
164 2 -2201872.314269304
165 2 -7761105.088614607
166 2 2366502.779631627
167 2 -7735861.228947246
168 2 -17626573.370219409
169 2 -202351.831833974
170 2 -812486.987137263
171 2 -4118146.686602249
172 2 715057.687166242
173 2 -6418605.361403855
174 2 -15615308.757350091
175 2 21994.362865437
176 2 4718.904527515
177 2 -123638.107105278
178 2 -76203.015955625
179 2 -666667.032595341
180 2 -3622094.140972124
181 2 -18059207.847979542
182 2 -37550761.421094902
183 2 -36287108.132406637
184 2 65757.206657243
185 2 26769.453287873
186 2 -320738.226001900
187 2 -184404.173102073
188 2 -795072.256647575
189 2 -3933654.990327894
190 2 68145.914019387
191 2 33505.666001668
192 2 -312554.650040930
193 2 -2496964.132684903
194 2 -4622937.599968622
195 2 -10231424.841309899
196 2 -30111939.753857762
197 2 -49742038.764026307
198 2 -23558970.126347035
199 2 15926.288023664
200 2 8745.746528265
201 2 -73032.729814105
202 2 -17781.904285045
203 2 -1096142.283822860
204 2 -5246712.719287568
205 2 214775.209995382
206 2 -1145094.074311825
207 2 -5517557.342810911
208 2 -16904295.996207345
209 2 -27024062.350045223
210 2 -21576738.767742906
211 2 209249.329944190
212 2 -1247923.554192282
213 2 -5845163.133039445
214 2 -2274608.292551446
215 2 -5592555.176875102
216 2 -12967091.283394055
217 2 12164140.698713792
218 2 -15485357.903523035
219 2 -17220277.912724569
220 2 -30776070.815067489
221 2 -53382305.935163125
222 2 -32504716.490874119
223 2 -11707816.866941743
224 2 -21150774.619425565
225 2 -23724443.401686724
226 2 -20644804.537708901
227 2 -32670502.236466534
228 2 -21295491.276843123
229 2 9741616.897727162
230 2 -13204143.039479680
231 2 -17819210.886169460
232 2 -2832602.431254568
233 2 -6278558.937709320
234 2 -13368803.123500399
235 2 1733689.007354303
236 2 -2589228.501420756
237 2 -7106576.285207087
238 2 982479.554219561
239 2 -2109092.148341232
240 2 -7085940.171813512
241 2 4544505.978493100
242 2 -6959557.070095531
243 2 -13943099.520319182
244 2 -19070016.914229695
245 2 -29916689.032901052
246 2 -16684724.343388513
247 2 465781.940342457
248 2 -2056211.874462877
249 2 -7856356.223026732
250 2 -575479.171955433
251 2 -3583874.433877989
252 2 -10477574.791090371
253 2 347086.920125398
254 2 -1172532.852980091
255 2 -5240510.633670701
256 2 -26180876.511022370
257 2 -48036812.798223674
258 2 -35858661.066049933
259 2 -480971.748799905
260 2 -1261605.827253056
261 2 -5176602.534067299
262 2 17268856.373557791
263 2 -21538000.407963455
264 2 -15253693.253378959
265 2 -16505072.062435806
266 2 -44502140.041568249
267 2 -43465173.469971284
268 2 4126615.152870916
269 2 -8571958.759346543
270 2 -17291949.171273418
271 2 -931306.603076257
272 2 -2030059.742427230
273 2 -6777398.778381038
274 2 -2356280.579150525
275 2 -6539543.589600287
276 2 -15383821.334349589
277 2 932870.239997497
278 2 -2126797.669847402
279 2 -7682092.868227676
280 2 -1583031.316985125
281 2 -3377121.447246219
282 2 -9152528.650064388
283 2 -38899789.740632564
284 2 -66540376.149276018
285 2 -22687499.681276441
286 2 11304088.430030210
287 2 -13968373.176292025
288 2 -14288377.975335155
289 2 -10963563.717159098
290 2 -19898287.164430335
291 2 -23655320.845930632
292 2 1468457.322255755
293 2 -2538799.527566540
294 2 -8521984.997342635
295 2 -32431147.329860263
296 2 -54195628.596813425
297 2 -39219184.252177984
298 2 -5886860.704857525
299 2 -8503257.405251691
300 2 -10785481.538256854
301 2 88156920.180189341
302 2 -135176181.444692314
303 2 -44858090.774968803
304 2 35981205.091560215
305 2 -66548040.270825103
306 2 -53282166.809243709
307 2 -8657603.539086597
308 2 -15292318.207769644
309 2 -17641326.663480710
310 2 25125234.623246513
311 2 -87113485.021333769
312 2 -77713952.762813836
313 2 1163243.844688968
314 2 -2096915.304712733
315 2 -6956425.397216248
316 2 -34165027.903389737
317 2 -74265945.879778162
318 2 -54394759.502795316
319 2 -95700997.323296651
320 2 -208730690.376875043
321 2 -54192211.672688119
322 2 -13995427.039614402
323 2 -23538840.045141060
324 2 -23187750.468227737
325 2 418365.272384772
326 2 -1596268.365235595
327 2 -6272503.745685774
328 2 -522388.668217402
329 2 -10294444.960703019
330 2 -16984818.483652614
331 2 3373146.099953835
332 2 -4084328.698643127
333 2 -12426174.589829437
334 2 -2953260.973902148
335 2 -7644809.475234895
336 2 -15537661.850257169
337 2 57097310.812694870
338 2 -115513702.749669790
339 2 -72698338.493486330
340 2 10324635.143818932
341 2 -13063289.764260128
342 2 -15805048.416293308
343 2 -37376703.576834999
344 2 -82060316.070704490
345 2 -51963991.268835187
346 2 1560.761410738
347 2 -2399.719533262
348 2 -18915.293813693
349 2 2357.106315033
350 2 -280.469830982
351 2 -20938.929108478
352 2 5890.084939340
353 2 3067.124694381
354 2 -37741.762290250
355 2 110.387695120
356 2 -175.557087314
357 2 -1432.783529045
358 2 860.304428298
359 2 -599.154583473
360 2 -11700.140374787
361 2 15642.119783495
362 2 1652.543589582
363 2 -100695.896380658
367 2 1964.225055754
368 2 -1092.116218805
369 2 -22070.284529955
370 2 21577.230176408
371 2 9754.682588438
372 2 -121682.731051527
373 2 7133.123156333
374 2 -106.808087354
375 2 -55671.691184280
376 2 1505.478812818
377 2 -156.872932224
378 2 -14257.558852072
379 2 30674.553602382
380 2 18550.567179577
381 2 -130789.158733106
382 2 792.863982126
383 2 -157.210670170
384 2 -8458.300868855
385 2 3502.513858517
386 2 1542.980039685
387 2 -24571.635369782
391 2 40109.113284176
392 2 13996.912461773
393 2 -202403.779654418
394 2 6241.906999174
395 2 216.001238533
396 2 -44673.649780087
397 2 50414.620773129
398 2 25696.738352466
399 2 -249204.009410148
400 2 2933412.187133846
401 2 -4025119.495844179
402 2 -8905073.920316357
403 2 768210.084155761
404 2 -2229536.145551991
405 2 -7755630.342442137
427 2 1971.106099476
428 2 -537.420155205
429 2 -23193.600050650
430 2 591.498910344
431 2 512.692151677
432 2 -3207.481691364
433 2 11658.867960750
434 2 7056.949760530
435 2 -67338.080909881
445 2 325909.464955781
446 2 -1558200.943654260
447 2 -6673779.524477237
448 2 653.570771625
449 2 -380.010888794
450 2 -7839.582332495
454 2 -206645.609504621
455 2 -1717147.126625595
456 2 -7038654.780066267
466 2 2411.231337018
467 2 -4040.146753009
468 2 -34052.837043440
481 2 43383.877598036
482 2 41740.369716378
483 2 -201542.176902605
505 2 732.476109183
506 2 -1385.636009901
507 2 -12263.391380198
508 2 46271.578344671
509 2 39427.514748311
510 2 -184426.037195336
517 2 144.366664529
518 2 -283.962769431
519 2 -2648.147177857
544 2 2813.487194633
545 2 -4950.743701627
546 2 -43411.220236328
562 2 7522246.650714127
563 2 -10626304.535090655
564 2 -16648328.465276191
565 2 800.632620173
566 2 989.639673287
567 2 -4834.852040520
568 2 2541.761404765
569 2 3149.805106518
570 2 -19512.421608816
574 2 714.040731590
575 2 -1642.403391611
576 2 -15864.529757857
583 2 -61.390944509
584 2 -2908.025531389
585 2 -20595.371119748
589 2 691.029322503
590 2 817.335084454
591 2 -3808.072075208
595 2 92584.498141659
596 2 -1379424.444472496
597 2 -6347901.805007068
598 2 4597.240291060
599 2 5488.853358776
600 2 -22450.146573998
619 2 18234.015945986
620 2 18488.130694922
621 2 -76616.400160307
628 2 1219.767117628
629 2 -6382.438770058
630 2 -48517.814653087
643 2 -510.736083937
644 2 -8255.437655030
645 2 -62771.910198997
664 2 23967.476643883
665 2 20979.608380509
666 2 -100300.487046224
673 2 57173.617479494
674 2 70874.288801849
675 2 -206923.364476007
682 2 61.891124067
683 2 -1189.501801648
684 2 -8610.158434311
685 2 -421147.117254003
686 2 -1148284.765695384
687 2 -4564145.320245806
688 2 57859.492107065
689 2 57192.012712481
690 2 -238328.163331149
691 2 -105.995706093
692 2 -130.679401205
693 2 -2158.130554051
697 2 28075.472952897
698 2 10990.754220088
699 2 -155349.934253514
703 2 1603.446631966
704 2 -1316.908341244
705 2 -26762.435401595
715 2 253.028357928
716 2 -749.653138510
717 2 -6016.404892230
718 2 -131.143690268
719 2 -537.116388264
720 2 -3780.603949207
721 2 37466.040852056
722 2 27586.271560754
723 2 -186051.728247273
724 2 84050.976180619
725 2 86910.319914178
726 2 -334974.583441253
733 2 2557.451629478
734 2 -952.423214117
735 2 -51159.662891823
736 2 4847.538889682
737 2 6544.630099910
738 2 -51809.510235439
742 2 39789.447621116
743 2 34375.214850549
744 2 -189065.318262938
760 2 43892.050940154
761 2 59058.296044414
762 2 -188211.421176225
763 2 -437.379840600
764 2 -2940.694348854
765 2 -34658.202614579
766 2 75182.029969359
767 2 79759.642216814
768 2 -275247.893474482
784 2 1363.375814359
785 2 -578.073916165
786 2 -22004.703605810
796 2 -134.506306432
797 2 -2047.438631528
798 2 -22361.705561171
802 2 -155.276660950
803 2 -631.250155965
804 2 -6820.607918625
811 2 -362.023952171
812 2 -962.611304324
813 2 -21781.117508693
832 2 -1573.869140217
833 2 1077.540343072
834 2 -19809.544202924
841 2 -3631.758943230
842 2 3427.263937384
843 2 -11638.224057889
844 2 -404511.755124836
845 2 -1139133.026573137
846 2 -4604106.140568570
856 2 -1045.899028495
857 2 -627.002913017
858 2 -16235.901703686
874 2 -167.949311566
875 2 -70.928509297
876 2 -2149.903391898
877 2 -543.109689998
878 2 -179.817116267
879 2 -4878.479283468
880 2 -282.380602575
881 2 -1326.334258309
882 2 -9528.364494175
883 2 24963.022190932
884 2 15211.869555265
885 2 -141934.233531103
898 2 -13450.969352312
899 2 8765.986372831
900 2 -50006.007204677
952 2 -26144.425597795
953 2 -16766.684480849
954 2 -195366.131610093
958 2 -72006.753824354
959 2 80957.026298406
960 2 -219666.888989246
961 2 -1238.525671666
962 2 -478.642278355
963 2 -8407.241038046
964 2 -26063.582564899
965 2 27463.402412291
966 2 -91175.252965719
967 2 -1365.798644586
968 2 -767.438188143
969 2 -10491.718611258
970 2 -27368.218627104
971 2 1670.183895491
972 2 -151613.518224297
973 2 -24057.967701127
974 2 -1702.398619892
975 2 -149864.806416237
976 2 -16057.217368329
977 2 -25.731125383
978 2 -116848.248749114
979 2 -25360.311051531
980 2 28731.967665160
981 2 -99116.743712504
982 2 -1637.500988447
983 2 -1163.824602273
984 2 -15256.338277121
988 2 -103061.419723649
989 2 121900.215492473
990 2 -310658.065058899
994 2 -600.809853908
995 2 -1870.844530956
996 2 -13416.398016044
997 2 -716.932669825
998 2 -1336.584324965
999 2 -10188.123628746
1000 2 -554.727732556
1001 2 -374.730550721
1002 2 -4141.412222564
1003 2 -34406.990533607
1004 2 -17777.948403655
1005 2 -241226.223023643
1006 2 -10657.198867535
1007 2 -16781.158889143
1008 2 -114522.871070703
1021 2 -13060.008249351
1022 2 -12398.709367823
1023 2 -115827.439807164
1024 2 -29518.372654507
1025 2 33659.705281820
1026 2 -109617.299829676
1039 2 -45706.693148201
1040 2 57402.053817632
1041 2 -128190.857500498
1048 2 -21924.464642655
1049 2 -4067.566083675
1050 2 -154006.238685921
1063 2 -17450.652189024
1064 2 -3675.004557775
1065 2 -126314.710521496
1069 2 -14893.402757791
1070 2 3764.756082586
1071 2 -68433.224155358
1078 2 -2641.831522832
1079 2 213.011757998
1080 2 -14436.621059220
1084 2 -3736.332522198
1085 2 380.828727091
1086 2 -24850.484851870
1096 2 -3204.769401039
1097 2 -3140.671793452
1098 2 -73421.528426433
1099 2 -1378.411531350
1100 2 -652.369199545
1101 2 -8569.079097532
1426 2 -1399.605158348
1427 2 -2516.676608358
1428 2 -22931.816695636
1 3 -9669888.090179147
2 3 128383928.770523548
3 3 365340495.246754467
4 3 4699608327.731662750
5 3 -1606259637.574507952
6 3 654808766.034593821
7 3 50033.024861939
8 3 7183.497700895
9 3 -1632007.853714964
10 3 1121.974182173
11 3 -113685.351422483
12 3 -568.595450336
67 3 88192.758282786
68 3 5825.631405722
69 3 43.752192310
70 3 2581.100524626
71 3 -151.597832064
72 3 -760.341665270
100 3 5038.675723213
101 3 1702.291565935
102 3 -1384137.540711121
103 3 -703.605609940
104 3 -34323.162180324
105 3 -6.710715330
106 3 2284024.447028884
107 3 -2318462.141790032
108 3 -7840631.795744188
109 3 2415279.050715366
110 3 -2319336.994133425
111 3 -9249027.016818210
112 3 6748863.849259247
113 3 -5037418.157240155
114 3 -25410129.590571400
115 3 2534687.046081627
116 3 -2716980.005359830
117 3 -7293927.451381335
118 3 292720.048832991
119 3 -738823.785077160
120 3 -5477809.214066258
121 3 7336242.998911358
122 3 -6920322.083942837
123 3 -22676545.202476557
124 3 22597048.782413766
125 3 -16113450.891951194
126 3 -72662393.858187199
127 3 209251.178420956
128 3 -771058.516165688
129 3 -6367576.522620615
130 3 678743.018942572
131 3 -921226.496408039
132 3 -8759586.380143518
133 3 3334164.925385360
134 3 -3313301.484001155
135 3 -10865364.434062541
136 3 6147122.556136967
137 3 -5643149.297852013
138 3 -19998449.471985061
139 3 -38115.714939869
140 3 -29784.071294611
141 3 -63883.169181840
142 3 371977.642142424
143 3 -780810.407640783
144 3 -6299761.824676437
145 3 26730410.567113496
146 3 -22113076.027626995
147 3 -79846320.024992749
148 3 7458813.783925847
149 3 -6915579.100661944
150 3 -23376180.560909849
151 3 16807969.649715815
152 3 -24601287.468379308
153 3 -31509703.670007572
154 3 2072262.300072801
155 3 -1759613.399362698
156 3 -10845583.725114012
157 3 -116478.989190215
158 3 -108815.152756891
159 3 -265358.313790272
160 3 79821859.693697155
161 3 -157704545.191250443
162 3 -127419007.390490815
163 3 3553650.971903232
164 3 -3587388.701874602
165 3 -11122361.868704131
166 3 16570189.306608154
167 3 -18969752.173612047
168 3 -41379632.967334308
169 3 335143.718096688
170 3 -785474.275575716
171 3 -6761981.443078371
172 3 13590562.985028155
173 3 -14497394.280451195
174 3 -36126332.858377993
175 3 -33183.852257814
176 3 -28760.931122905
177 3 -61270.392291545
178 3 224888.751337269
179 3 -691232.951410285
180 3 -4795710.495818711
181 3 48218436.721316464
182 3 -57465892.884498201
183 3 -117145718.616344050
184 3 -76218.791007522
185 3 -92488.459229225
186 3 -216388.629429119
187 3 248561.662348739
188 3 -819233.789291209
189 3 -6915872.554627494
190 3 -71491.167062425
191 3 -98771.635548375
192 3 -229012.530878992
193 3 6784094.897080099
194 3 -5026862.621495962
195 3 -25664818.749597952
196 3 40356487.418172486
197 3 -35800991.225156173
198 3 -114129991.102314293
199 3 -20413.923376753
200 3 -19239.150001899
201 3 -39611.992892547
202 3 1190395.062731537
203 3 -1239630.830722228
204 3 -6666384.399514192
205 3 1360964.797735557
206 3 -1388724.354977585
207 3 -6390825.992540601
208 3 28810313.117730550
209 3 -25256819.337506361
210 3 -83456894.212419853
211 3 1613174.953393794
212 3 -1593467.568010296
213 3 -7266272.504160668
214 3 10147529.965494081
215 3 -8648396.521874843
216 3 -32681290.057549883
217 3 20149437.893773589
218 3 -30106066.158224814
219 3 -37759669.743577421
220 3 50830046.557658024
221 3 -53655260.578178369
222 3 -131881091.286500096
223 3 28522927.226471342
224 3 -28365496.610027943
225 3 -77584382.863729343
226 3 31003790.064157758
227 3 -26045397.057097040
228 3 -91087526.592731059
229 3 19582632.985713918
230 3 -27983647.748954214
231 3 -38809283.282507218
232 3 10878720.928905360
233 3 -9263118.890813135
234 3 -34770043.262212709
235 3 3206821.495916853
236 3 -3557257.590656090
237 3 -8268395.889347768
238 3 3030692.528509565
239 3 -3157857.271441152
240 3 -9179427.769525316
241 3 12233658.936244119
242 3 -15017634.252076516
243 3 -28117260.089194346
244 3 24842448.065136250
245 3 -18009885.327760760
246 3 -78655175.066508457
247 3 3548876.741460069
248 3 -3359043.623529234
249 3 -12345624.171295738
250 3 6718854.859258214
251 3 -6047910.908525381
252 3 -21968713.672413517
253 3 1258798.530296159
254 3 -1339150.916377587
255 3 -5282188.953229157
256 3 51984864.238738261
257 3 -58874030.529630139
258 3 -130016924.397892833
259 3 1028126.423587652
260 3 -1043450.485045201
261 3 -8959619.118078545
262 3 21150015.587715182
263 3 -34362375.459254503
264 3 -35143587.946620643
265 3 57060552.299722217
266 3 -77393471.487470865
267 3 -127335543.703803644
268 3 16591803.576646665
269 3 -20490420.998046629
270 3 -38447964.391209476
271 3 2443903.797566827
272 3 -1835787.904454093
273 3 -13379173.509665102
274 3 13287754.054265480
275 3 -11684728.696766598
276 3 -40738331.854147911
277 3 3445231.238153747
278 3 -3447248.895897602
279 3 -11012141.262177007
280 3 5175045.455907146
281 3 -3892608.935116389
282 3 -20705324.916021187
283 3 46227859.652974702
284 3 -40730302.307402633
285 3 -130164091.762706399
286 3 16246623.936110983
287 3 -24097550.554680496
288 3 -29628527.206462808
289 3 28061302.862819821
290 3 -27649992.630807046
291 3 -76815612.035689354
292 3 4325132.470983628
293 3 -4405049.830867727
294 3 -12944863.724951800
295 3 60440162.088721164
296 3 -63178924.783240721
297 3 -157802291.242407709
298 3 8882302.337591786
299 3 -4615437.099938099
300 3 -36940443.407965682
301 3 99620640.243654132
302 3 -229194827.061198026
303 3 -133013203.757575125
304 3 76809801.493818119
305 3 -150644445.559948146
306 3 -123294673.747589201
307 3 19210839.421579391
308 3 -17756284.023106139
309 3 -55447239.286295079
310 3 105089491.476400971
311 3 -207035592.535394073
312 3 -174947412.930229127
313 3 2865365.048655821
314 3 -3022004.051696295
315 3 -8477577.543693861
316 3 79929614.391309530
317 3 -107926052.240973130
318 3 -180961120.831013203
319 3 121966560.895237967
320 3 -173455189.338122964
321 3 -267477737.697614044
322 3 29033627.410395294
323 3 -27454899.097193033
324 3 -81071246.722721189
325 3 2172427.398784470
326 3 -2186271.979790608
327 3 -7938165.059730550
328 3 16193486.194271335
329 3 -19951582.794780873
330 3 -36905519.425239168
331 3 9011292.132478157
332 3 -9073566.539706005
333 3 -25732104.803286679
334 3 13879129.234820651
335 3 -12864017.170631427
336 3 -40980270.113113806
337 3 110460368.523608357
338 3 -243762568.176169008
339 3 -159061915.906256020
340 3 17414454.472488333
341 3 -25141308.743964836
342 3 -33508459.556632522
343 3 78188411.193635046
344 3 -108061931.551298350
345 3 -173485111.112109840
346 3 -4587.914404253
347 3 -2469.985409244
348 3 -4816.515677543
349 3 -6339.231380124
350 3 -2925.397376628
351 3 -5514.464360142
352 3 -12334.041463283
353 3 -6288.535742116
354 3 -12025.839905206
355 3 -359.603232786
356 3 -169.958995605
357 3 -319.709103674
358 3 -3514.685287954
359 3 -1143.212353236
360 3 -1998.570325568
361 3 -28342.822280485
362 3 -19864.862629173
363 3 -41413.804777943
367 3 -6476.099079987
368 3 -2595.820144818
369 3 -4806.714075667
370 3 -36744.187297539
371 3 -24450.186443095
372 3 -50911.920258409
373 3 -16521.243255913
374 3 -8836.661165079
375 3 -17476.585636020
376 3 -4402.671009362
377 3 -1847.989537866
378 3 -3404.085833587
379 3 -33346.875604011
380 3 -40080.541473237
381 3 -85438.652292686
382 3 -2629.958962206
383 3 -984.549726750
384 3 -1763.324140414
385 3 -8036.923273669
386 3 -3814.336911043
387 3 -7162.360145940
391 3 -51327.239058588
392 3 -54046.660923742
393 3 -120000.995575094
394 3 -13083.895787760
395 3 -7769.433397747
396 3 -15395.991085149
397 3 -68630.010844991
398 3 -60685.373852443
399 3 -136619.640343508
400 3 5542025.956395425
401 3 -6471934.059443515
402 3 -13044900.877151441
403 3 3624752.828647516
404 3 -3630795.691010714
405 3 -11507898.909448864
427 3 -7219.409971796
428 3 -2477.822277761
429 3 -4431.695373368
430 3 -1109.318097127
431 3 -562.646571225
432 3 -1034.435327086
433 3 -21851.550981783
434 3 -12204.697609950
435 3 -24029.002111250
445 3 2345939.910005494
446 3 -2239641.642032855
447 3 -9207196.842980225
448 3 -2336.141505050
449 3 -859.651844872
450 3 -1539.359861958
454 3 2648781.103251140
455 3 -2298795.713153016
456 3 -11611262.521202959
466 3 -8660.624908511
467 3 -3699.526371455
468 3 -7082.692078253
481 3 -66917.228573070
482 3 -39747.027309007
483 3 -83715.489742023
505 3 -3257.229048113
506 3 -1098.024816670
507 3 -1955.201800404
508 3 -53289.847997309
509 3 -50086.890018360
510 3 -107135.517201927
517 3 -721.618574874
518 3 -214.141021495
519 3 -363.320735498
544 3 -11279.388611587
545 3 -4274.979157687
546 3 -8108.334569301
562 3 17022192.212937661
563 3 -23071485.367140703
564 3 -35527483.196768582
565 3 -1786.127894272
566 3 -690.375021286
567 3 -1190.952618712
568 3 -7239.821217866
569 3 -2330.058536640
570 3 -3919.884393720
574 3 -4396.452065927
575 3 -1075.554780751
576 3 -1753.186436739
583 3 -5348.715104163
584 3 -28.955704218
585 3 671.460248874
589 3 -1390.520845443
590 3 -593.138818002
591 3 -1044.256586355
595 3 1984945.958206226
596 3 -1847932.053800252
597 3 -8935458.365635354
598 3 -8092.955075062
599 3 -3852.396017356
600 3 -6988.101914182
619 3 -25519.614990618
620 3 -16645.651226949
621 3 -32698.302509620
628 3 -12634.712875643
629 3 -2075.865155250
630 3 -3123.501312702
643 3 -16502.438856046
644 3 204.087814012
645 3 2287.827071804
664 3 -31412.814137605
665 3 -24022.316877830
666 3 -48781.129800419
673 3 -68138.685239438
674 3 -47581.783638984
675 3 -98211.612702557
682 3 -2257.259785169
683 3 -137.001025043
684 3 24.695132770
685 3 626946.948693264
686 3 -898355.281804304
687 3 -8318228.762293197
688 3 -75695.632967705
689 3 -54246.189365817
690 3 -116902.274924230
691 3 -670.049047173
692 3 87.372297816
693 3 296.102170125
697 3 -44833.776439506
698 3 -33324.336566469
699 3 -71386.156610570
703 3 -8177.829163632
704 3 -2172.049895048
705 3 -3667.689650674
715 3 -1591.663837993
716 3 -392.078816637
717 3 -630.892240557
718 3 -978.709466429
719 3 173.440508914
720 3 530.090558034
721 3 -58655.322675964
722 3 -38214.449891485
723 3 -81440.390548959
724 3 -104553.800976642
725 3 -77878.739924940
726 3 -175304.647355180
733 3 -16568.361856074
734 3 -3456.845233037
735 3 -5573.600421654
736 3 -19221.237514315
737 3 -4831.240683270
738 3 -7900.124739648
742 3 -61390.420333407
743 3 -38267.287221106
744 3 -80816.188422837
760 3 -66832.980229946
761 3 -33622.460743247
762 3 -66937.400573101
763 3 -10260.268331161
764 3 86.956038750
765 3 1548.508966605
766 3 -82431.534432777
767 3 -73016.474108729
768 3 -159670.500866062
784 3 -7004.120055760
785 3 -1780.153719640
786 3 -2925.728292218
796 3 -6545.490459717
797 3 -96.024266363
798 3 697.277189200
802 3 -1999.932262651
803 3 112.433715411
804 3 546.388216945
811 3 -6985.214049254
812 3 30.304637715
813 3 1062.783048130
832 3 -7151.112324241
833 3 847.056324260
834 3 2962.834635724
841 3 -3966.668107939
842 3 2419.037172920
843 3 6091.116849355
844 3 686057.684790680
845 3 -924604.574310304
846 3 -8038643.571333462
856 3 -5186.849505147
857 3 841.287264857
858 3 2628.097638546
874 3 -689.251155338
875 3 141.576772717
876 3 420.461906620
877 3 -1494.792891798
878 3 538.903884007
879 3 1426.299896822
880 3 -2487.842663126
881 3 354.404759928
882 3 1147.542825691
883 3 -45228.932251568
884 3 -26196.906194093
885 3 -54411.812189626
898 3 -15663.375611062
899 3 11732.203983030
900 3 28637.609485403
952 3 -44871.774189375
953 3 39340.977545462
954 3 93172.692703270
958 3 -75865.970927197
959 3 40425.336115479
960 3 100807.276482690
961 3 -2232.541290658
962 3 1636.315294783
963 3 3980.735295631
964 3 -32738.347650105
965 3 14490.860275948
966 3 37457.594732677
967 3 -2801.252380452
968 3 1791.254879395
969 3 4406.166616162
970 3 -41885.196164786
971 3 30878.908426214
972 3 74051.226584712
973 3 -41746.800131092
974 3 26888.078516628
975 3 64765.300801466
976 3 -35977.987822716
977 3 14987.971201950
978 3 37437.500174901
979 3 -36669.068973704
980 3 12751.408493048
981 3 34010.061118462
982 3 -4270.377472675
983 3 1954.930910123
984 3 4975.959802833
988 3 -107336.352980447
989 3 54924.908126996
990 3 135802.252994853
994 3 -3461.549182232
995 3 809.482131062
996 3 2294.119042028
997 3 -2614.407189773
998 3 1005.440993885
999 3 2616.751415267
1000 3 -1027.102991983
1001 3 830.504713751
1002 3 2003.478294290
1003 3 -54320.032995658
1004 3 51944.983600744
1005 3 122715.601440942
1006 3 -25146.019985026
1007 3 18166.022591673
1008 3 43498.140647891
1021 3 -27815.497229679
1022 3 19229.029184117
1023 3 46196.950798797
1024 3 -40263.706264657
1025 3 14891.648056532
1026 3 39331.553995041
1039 3 -44452.507284606
1040 3 22797.697267136
1041 3 58492.584770034
1048 3 -43427.459220604
1049 3 23917.351507136
1050 3 57898.599916838
1063 3 -36085.406309233
1064 3 18850.111800380
1065 3 46067.112687650
1069 3 -18791.872382228
1070 3 17366.354059159
1071 3 41539.181993976
1078 3 -4202.347120866
1079 3 2899.955202326
1080 3 7104.411204648
1084 3 -7890.655274882
1085 3 3421.859807841
1086 3 8787.674433924
1096 3 -23220.518737681
1097 3 2176.362041631
1098 3 7505.379910517
1099 3 -1901.910663560
1100 3 2436.718884071
1101 3 5709.754274073
1426 3 -6292.397631598
1427 3 1666.202448171
1428 3 4584.025797882
1 4 -917455148.264927626
2 4 1993597019.944202662
3 4 4699608327.731662750
4 4 70876508716.576416016
5 4 412007036.877947986
6 4 13828482827.945905685
7 4 -475.816877293
8 4 49488.008450187
9 4 -934.586940389
10 4 -231893.735053834
11 4 -2370.557579835
12 4 -373.089650543
67 4 -1666.201049168
68 4 37977.779958022
69 4 85228.550662291
70 4 -1645.740375851
71 4 37482.800831166
72 4 84224.163909713
100 4 -32.255890435
101 4 -198.306407020
102 4 8.286763805
103 4 -448.339712813
104 4 95.584681773
105 4 101.871257420
106 4 1848616.158163202
107 4 -34855878.534423128
108 4 -149475267.940396219
109 4 1829876.203254311
110 4 -36455416.098194987
111 4 -156023214.563770711
112 4 4180866.860978832
113 4 -103971880.886430770
114 4 -328784099.655841529
115 4 2137880.760229699
116 4 -38866098.495888181
117 4 -158158418.332586914
118 4 331716.163369194
119 4 -8865464.741651019
120 4 -53675468.514926620
121 4 5142595.206267048
122 4 -114204192.777719840
123 4 -347777527.120051742
124 4 15607299.827868167
125 4 -439757493.415153325
126 4 -853760476.821452856
127 4 235351.873652924
128 4 -7848155.648708371
129 4 -53375158.254139349
130 4 425393.878730734
131 4 -13541368.385359360
132 4 -79574897.073521450
133 4 2525005.625039437
134 4 -49721114.923767366
135 4 -194115303.707177460
136 4 4252946.198622241
137 4 -95560763.891805798
138 4 -298700426.384548366
139 4 178.056787656
140 4 -4954.281917518
141 4 -62016.614066955
142 4 351755.751883922
143 4 -9793594.774868701
144 4 -60734542.619378783
145 4 19776195.576429542
146 4 -540687032.283014059
147 4 -976970180.479127765
148 4 5176810.798370318
149 4 -115857654.348746702
150 4 -353772226.247348487
151 4 15117910.882169468
152 4 -304252516.694716454
153 4 -660164679.371386647
154 4 1372484.652141410
155 4 -31485065.461575568
156 4 -142888281.759977311
157 4 286.108992005
158 4 -20542.066424784
159 4 -509793.986844958
160 4 94922748.422094703
161 4 -2191107698.473655224
162 4 -2297220282.412408352
163 4 2709885.826212102
164 4 -52821847.664169021
165 4 -203753023.455991894
166 4 13020139.212516634
167 4 -289633366.933628201
168 4 -672889306.634959936
169 4 303853.910603774
170 4 -9313793.896096520
171 4 -60952287.322740279
172 4 10281997.123238673
173 4 -232658297.286324888
174 4 -564896905.360479236
175 4 136.848629184
176 4 -4113.816380751
177 4 -48211.628886294
178 4 310349.254678057
179 4 -8018167.169443805
180 4 -47762943.558043256
181 4 43782551.408474490
182 4 -1134487350.730640888
183 4 -1575042015.278151274
184 4 827.180010702
185 4 -31831.597498138
186 4 -311875.638983767
187 4 231584.303806943
188 4 -8377366.960814351
189 4 -55641529.485255279
190 4 765.548639488
191 4 -32427.877293837
192 4 -290664.643641979
193 4 4192527.458691311
194 4 -105553009.460575908
195 4 -327287342.920432568
196 4 32772391.345192645
197 4 -918661087.410029411
198 4 -1357653311.056826830
199 4 20.485038453
200 4 -896.082623754
201 4 -15148.979959555
202 4 970259.245616016
203 4 -20319618.966344792
204 4 -98047344.399658576
205 4 1149429.877998036
206 4 -22320681.398034666
207 4 -108380378.351423994
208 4 21971338.590904392
209 4 -595269876.919993639
210 4 -1034750976.718956590
211 4 1294797.891752113
212 4 -25591510.346991166
213 4 -120307773.489640310
214 4 6819394.622666281
215 4 -164857451.146939993
216 4 -450513061.540974796
217 4 18427819.169704936
218 4 -379416469.327881515
219 4 -763938128.189239621
220 4 44893586.291608065
221 4 -1218639536.082230806
222 4 -1648995176.710523605
223 4 22643805.912082899
224 4 -588189399.148241758
225 4 -1020141400.311108351
226 4 23584520.275929362
227 4 -651243383.356270313
228 4 -1103908906.847728729
229 4 17488002.051258817
230 4 -367292225.461903095
231 4 -744870182.301491499
232 4 7352572.428681443
233 4 -180290145.522136450
234 4 -472511367.499851167
235 4 2689381.260408708
236 4 -48492430.601427019
237 4 -187066864.758376181
238 4 2405831.095830548
239 4 -46734494.336798616
240 4 -174769756.915072352
241 4 9924802.469425155
242 4 -206633340.448448658
243 4 -515419228.586248994
244 4 17585595.186712880
245 4 -499897647.998832881
246 4 -913928620.996123195
247 4 2568050.324515302
248 4 -52771915.595354527
249 4 -203275339.111274779
250 4 4596548.882451855
251 4 -105344263.017733276
252 4 -319971215.862196743
253 4 1142165.407272662
254 4 -21429783.567161571
255 4 -100018183.117559910
256 4 47014299.958967090
257 4 -1250293529.068185568
258 4 -1679064846.536187172
259 4 675188.854950021
260 4 -17698291.689889513
261 4 -96970722.587913677
262 4 20274943.328993425
263 4 -402380326.233292043
264 4 -795436709.047553182
265 4 56186287.576029778
266 4 -1438181587.965023994
267 4 -1760391041.015865803
268 4 13631123.602449389
269 4 -298009458.163359702
270 4 -656875722.282312870
271 4 1457957.586674816
272 4 -36337705.652436890
273 4 -161311873.848148286
274 4 9101785.155678926
275 4 -217328542.318953395
276 4 -577442635.596555710
277 4 2617027.423523349
278 4 -51161520.015341893
279 4 -199559012.052400917
280 4 3187340.248348119
281 4 -77943876.271323845
282 4 -268874402.717874348
283 4 38577833.982371368
284 4 -1101291651.427251101
285 4 -1508392297.118043900
286 4 14728745.170712046
287 4 -293151468.025460660
288 4 -640258690.163922668
289 4 22041574.031541005
290 4 -569433919.412950158
291 4 -1017772211.170112252
292 4 3261281.761430728
293 4 -62279416.973566048
294 4 -243000742.869396180
295 4 52613822.339634933
296 4 -1407899403.458270788
297 4 -2040004216.368597984
298 4 4819965.345861962
299 4 -135833086.974602491
300 4 -426738428.951365888
301 4 127914737.494401544
302 4 -2790764915.883925915
303 4 -2859340684.176513672
304 4 90246822.173098773
305 4 -2067163791.913912535
306 4 -2248458564.955809593
307 4 14393948.128026804
308 4 -377088806.335401118
309 4 -707279043.552586317
310 4 128820210.576457798
311 4 -3081418095.305640697
312 4 -2912201841.569953442
313 4 2330771.698170634
314 4 -43460999.388314329
315 4 -172532199.548110723
316 4 81542954.867446169
317 4 -2142252783.045270920
318 4 -2408281157.180652142
319 4 141419493.172491550
320 4 -3930238950.101091385
321 4 -3165854327.993083477
322 4 22675735.668249249
323 4 -598991470.969809771
324 4 -1041270948.589499593
325 4 1717993.808884380
326 4 -34338809.010972358
327 4 -137905454.087256014
328 4 13814976.290238205
329 4 -331314885.963836312
330 4 -553734613.786012292
331 4 6304966.208095662
332 4 -118041234.372088388
333 4 -471681299.230964065
334 4 9902616.149596710
335 4 -241170614.174216539
336 4 -571286989.401257157
337 4 144079719.825014263
338 4 -3342589457.770470142
339 4 -2953330131.346245766
340 4 15554632.385884309
341 4 -317269025.404630542
342 4 -679802609.492985487
343 4 81927562.446458071
344 4 -2172967687.202819824
345 4 -2259667614.011520386
346 4 9.595890009
347 4 -216.633118658
348 4 -1396.977169107
349 4 4.259383301
350 4 -83.307117344
351 4 -1429.084596592
352 4 1.011500510
353 4 6.342395109
354 4 -3954.657605887
355 4 0.053065153
356 4 -1.165493475
357 4 -7.956521348
358 4 1.869695153
359 4 -33.331611658
360 4 -469.597831834
361 4 92.256722499
362 4 -2388.744804813
363 4 -32421.651209798
367 4 6.771521883
368 4 -131.634939019
369 4 -1676.855037980
370 4 43.317146730
371 4 -1266.076741388
372 4 -42580.373437762
373 4 28.324996738
374 4 -607.000142657
375 4 -9998.052015327
376 4 1.826347074
377 4 -32.868149409
378 4 -656.180930502
379 4 86.426005760
380 4 -4155.600172924
381 4 -48465.761491853
382 4 0.680063847
383 4 -11.521164793
384 4 -232.708304351
385 4 1.094094065
386 4 -6.896312262
387 4 -1720.124850661
391 4 332.702274733
392 4 -11703.618629005
393 4 -125654.565107203
394 4 18.233163737
395 4 -421.476836350
396 4 -6421.043960762
397 4 232.705638651
398 4 -9436.148722426
399 4 -178039.010365346
400 4 4506762.929996695
401 4 -85205518.916214839
402 4 -277352550.197757900
403 4 2729603.771371402
404 4 -55323818.128855743
405 4 -200169597.698771983
427 4 5.286374268
428 4 -85.752021700
429 4 -1757.088402394
430 4 -0.049494826
431 4 1.358341224
432 4 -24.497688869
433 4 -1.970401176
434 4 81.910870364
435 4 -12208.176531708
445 4 1770522.837983881
446 4 -35475630.501493186
447 4 -153101303.508260697
448 4 0.831907642
449 4 -15.539744677
450 4 -210.647236850
454 4 1807309.128164143
455 4 -39547950.487172835
456 4 -167020878.073393345
466 4 28.902043987
467 4 -618.245817814
468 4 -4456.890500096
481 4 -243.914343075
482 4 5541.117812153
483 4 -91378.079207859
505 4 3.569180132
506 4 -72.567902106
507 4 -571.877079969
508 4 -56.695206261
509 4 -1276.737654194
510 4 -83661.576206081
517 4 0.158959778
518 4 -3.133332771
519 4 -26.399533149
544 4 45.152847118
545 4 -938.077869962
546 4 -7179.995430776
562 4 14695739.447300181
563 4 -308913945.483916879
564 4 -666881950.399286985
565 4 -0.205684545
566 4 5.912876672
567 4 -47.435391493
568 4 -2.840510532
569 4 91.553206011
570 4 -829.886737466
574 4 5.534098059
575 4 -104.657748571
576 4 -939.965903316
583 4 13.073640143
584 4 -237.363910409
585 4 -1684.035140430
589 4 -0.126170528
590 4 3.489070904
591 4 -29.430825453
595 4 1474618.591960406
596 4 -30240510.211062301
597 4 -139033511.906951308
598 4 -4.621845745
599 4 120.277165249
600 4 -984.399378892
619 4 -38.564349417
620 4 806.866617405
621 4 -12663.452829948
628 4 64.647443697
629 4 -1229.114936597
630 4 -9178.088671930
643 4 115.031793164
644 4 -2024.513342913
645 4 -15404.509936672
664 4 -36.139301239
665 4 432.452594299
666 4 -23923.429562902
673 4 -389.504180527
674 4 7985.997839995
675 4 -77761.006597253
682 4 2.192381243
683 4 -40.423359717
684 4 -292.642774217
685 4 416846.993665251
686 4 -12882558.297002101
687 4 -76727036.998875514
688 4 -324.050178615
689 4 5788.911527695
690 4 -125949.048633516
691 4 0.087678338
692 4 -1.074211632
693 4 -16.255919846
697 4 112.065577241
698 4 -3447.488813634
699 4 -71332.926852615
703 4 9.369400015
704 4 -152.224261365
705 4 -2435.424357959
715 4 0.935614447
716 4 -18.385666374
717 4 -139.865343200
718 4 0.485897821
719 4 -8.383835766
720 4 -57.297928038
721 4 -71.800277725
722 4 1131.107634312
723 4 -88370.728173223
724 4 -688.355465422
725 4 11823.932203205
726 4 -242726.555645737
733 4 22.306878876
734 4 -234.016909846
735 4 -8347.512088340
736 4 -16.050519802
737 4 609.291641399
738 4 -6202.020381785
742 4 -155.471758103
743 4 3273.949016579
744 4 -85225.105724215
760 4 -379.916219415
761 4 9380.306795586
762 4 -60477.862196751
763 4 24.632394136
764 4 -368.157773711
765 4 -4343.051579153
766 4 -410.886839740
767 4 4701.919361072
768 4 -162752.693752463
784 4 4.706427099
785 4 -63.400849881
786 4 -1575.199618068
796 4 10.676336413
797 4 -166.885851078
798 4 -1828.471190407
802 4 1.052122807
803 4 -15.976722215
804 4 -170.984727602
811 4 6.527300147
812 4 -70.099712176
813 4 -1587.926929533
832 4 1.412015355
833 4 46.607259864
834 4 -1074.614451745
841 4 0.820571586
842 4 19.565454962
843 4 -286.162602332
844 4 474720.109367884
845 4 -13680646.019310450
846 4 -77908096.100998893
856 4 4.305022363
857 4 -42.708219501
858 4 -886.305968082
874 4 0.077419371
875 4 -0.738141830
876 4 -15.477335570
877 4 0.528833595
878 4 -5.888142496
879 4 -82.363106978
880 4 2.976080964
881 4 -51.401076791
882 4 -361.670247827
883 4 -7.713610610
884 4 233.076393942
885 4 -54249.751097159
898 4 43.281880122
899 4 -150.524196331
900 4 -6809.429550512
952 4 1661.793424415
953 4 -24652.539913825
954 4 -149357.553756537
958 4 23.035630923
959 4 11281.876503283
960 4 -83658.882405887
961 4 2.595977870
962 4 -35.959385006
963 4 -265.398158632
964 4 -2.003181102
965 4 2042.482669026
966 4 -15507.548961746
967 4 3.942426610
968 4 -55.932033655
969 4 -417.658266223
970 4 680.045834036
971 4 -7677.454412381
972 4 -78754.682654960
973 4 646.233897945
974 4 -7508.955119406
975 4 -78203.945739422
976 4 268.703985456
977 4 -2354.448144097
978 4 -44881.861646674
979 4 -30.603008222
980 4 2834.625488504
981 4 -17363.581317106
982 4 7.131723932
983 4 -99.128669411
984 4 -868.244591508
988 4 -93.397678231
989 4 24535.387960102
990 4 -156039.342143810
994 4 6.246635248
995 4 -105.849636189
996 4 -721.117510370
997 4 3.826019369
998 4 -62.332588495
999 4 -415.498338045
1000 4 0.733296912
1001 4 -11.019313054
1002 4 -67.582875113
1003 4 2565.126879977
1004 4 -37371.773012654
1005 4 -225554.875490915
1006 4 623.209276742
1007 4 -10298.733449384
1008 4 -54567.833402884
1021 4 555.836156465
1022 4 -8530.053275461
1023 4 -53202.268736712
1024 4 -35.279934065
1025 4 3434.355844288
1026 4 -20794.076035362
1039 4 -31.975977181
1040 4 4292.403859472
1041 4 -23670.792466314
1048 4 647.835141534
1049 4 -7605.474034652
1050 4 -83145.861945070
1063 4 425.909691534
1064 4 -4990.386089593
1065 4 -55933.129035153
1069 4 148.737431643
1070 4 -1645.804065571
1071 4 -15618.386958335
1078 4 5.808922519
1079 4 -63.421101474
1080 4 -707.349301899
1084 4 11.512670325
1085 4 -89.375962466
1086 4 -1987.937701855
1096 4 82.319388975
1097 4 -843.582541871
1098 4 -18113.130095219
1099 4 3.876083675
1100 4 -58.716683719
1101 4 -294.065595149
1426 4 15.897036488
1427 4 -246.300069726
1428 4 -2019.839045227
1 5 -2663293886.536861420
2 5 262646368.413820177
3 5 -1606259637.574507952
4 5 412007036.877947986
5 5 71776123425.239639282
6 5 11019244010.511985779
7 5 -48439.632859085
8 5 35.235356333
9 5 -109894.064894521
10 5 2385.470407887
11 5 -230454.258070770
12 5 -1123.893491782
67 5 92601.733779858
68 5 5759.492327489
69 5 -766.538836387
70 5 91411.851273071
71 5 5685.549244919
72 5 -757.989690477
100 5 695.855443813
101 5 -31.515143465
102 5 211.379072289
103 5 -96.592793542
104 5 -477.464219449
105 5 57.937285875
106 5 -151973981.029443800
107 5 30449513.693911612
108 5 -15657794.533300390
109 5 -158452400.274590969
110 5 9380198.909112949
111 5 -6403316.785779841
112 5 -343303587.746877491
113 5 -141722109.888295561
114 5 57279136.260726549
115 5 -161811780.237974614
116 5 54979008.674190111
117 5 -26734636.508712884
118 5 -52680392.809191816
119 5 -31511667.423606679
120 5 13342542.070479151
121 5 -366069298.949558914
122 5 -25760644.484747168
123 5 5333043.449772613
124 5 -955786102.394109964
125 5 -783183304.996928096
126 5 327377834.277142704
127 5 -51856138.845769398
128 5 -44402513.105911002
129 5 19103177.317285165
130 5 -78063508.690994650
131 5 -65428150.622773714
132 5 28076243.422116268
133 5 -199065158.922669232
134 5 29039531.300790600
135 5 -15822377.952352947
136 5 -313248116.996301055
137 5 -36742374.291778699
138 5 11153687.954418825
139 5 -58725.101891558
140 5 -36563.320393736
141 5 15662.940008567
142 5 -59478249.683388479
143 5 -38932280.932834826
144 5 16560126.372182883
145 5 -1109996945.347978115
146 5 -789525049.180802464
147 5 325988176.633281946
148 5 -372161982.174981475
149 5 -35542172.440761596
150 5 9580285.926647803
151 5 -734150342.894468904
152 5 378510616.018588424
153 5 -182493726.913586408
154 5 -143851271.017401993
155 5 -42309211.695773609
156 5 16793607.306013763
157 5 -473606.781076087
158 5 -391536.064559676
159 5 169833.499990907
160 5 -3009122321.292449951
161 5 973698755.058226824
162 5 -520665103.934170246
163 5 -209274904.279569715
164 5 38122829.436013281
165 5 -20020534.928364392
166 5 -736897292.308062792
167 5 40394786.977443814
168 5 -32042341.185427800
169 5 -59412641.479845144
170 5 -45762417.662436247
171 5 19607870.824407153
172 5 -613886740.216660619
173 5 -19317488.003370754
174 5 -2921397.203453090
175 5 -45731.076457687
176 5 -31095.615120302
177 5 13353.696475749
178 5 -46953672.113572493
179 5 -25730505.588070467
180 5 10842747.641938809
181 5 -1899737770.866961002
182 5 -883684377.939738870
183 5 343920776.860758424
184 5 -297308.321897006
185 5 -260793.184627209
186 5 112692.053086120
187 5 -54084163.862772107
188 5 -51215699.456191003
189 5 22096211.516035456
190 5 -277925.532120123
191 5 -268970.072458179
192 5 116443.345883774
193 5 -342459836.198560119
194 5 -152086853.941804051
195 5 61837464.051572427
196 5 -1607230431.526296377
197 5 -1370649654.123999119
198 5 568835566.651806712
199 5 -14191.611827520
200 5 -11417.511268681
201 5 4940.600546511
202 5 -98359433.730535567
203 5 -11615726.929647079
204 5 3835423.784133945
205 5 -108842150.763733000
206 5 5322272.567611064
207 5 -3817183.546364170
208 5 -1185141790.094243288
209 5 -802023379.045338988
210 5 329323087.725936770
211 5 -121123487.795789614
212 5 3128719.410532342
213 5 -3031121.128579961
214 5 -479964695.470580220
215 5 -144035247.581674397
216 5 55464814.132931128
217 5 -860370124.981284976
218 5 411124129.044340968
219 5 -200170420.191423863
220 5 -1996377278.593480349
221 5 -1411798507.835324764
222 5 575104223.567544937
223 5 -1171135129.414721727
224 5 -579107420.869458199
225 5 230676582.490344733
226 5 -1269731418.488523483
227 5 -966008822.507936239
228 5 399805797.891560614
229 5 -837109491.163807631
230 5 319924922.912037730
231 5 -159171813.149522692
232 5 -506194016.073648930
233 5 -170284883.363787860
234 5 66456019.487107962
235 5 -192529112.364424258
236 5 78619442.201583534
237 5 -37737037.338927239
238 5 -180135373.200983703
239 5 38400414.893374406
240 5 -19750476.534133162
241 5 -559388358.893013477
242 5 149015519.998044372
243 5 -76433775.572947457
244 5 -1034311858.458559394
245 5 -896058332.465148568
246 5 375084976.182967305
247 5 -208531745.511584252
248 5 7770865.495665865
249 5 -6544958.717341347
250 5 -336598189.450937927
251 5 -55913062.584391057
252 5 19196156.124551862
253 5 -100881223.501754016
254 5 15688289.247805540
255 5 -8333563.602050466
256 5 -2038822308.559324741
257 5 -1224083003.474603176
258 5 490489112.355316579
259 5 -95878972.056717664
260 5 -54465144.492941812
261 5 22953964.645466842
262 5 -900269453.321016312
263 5 599147238.680898428
264 5 -284568559.195108354
265 5 -2193530384.182426929
266 5 -841182082.546004295
267 5 313640738.854046285
268 5 -726204320.806939840
269 5 111452388.811383083
270 5 -63756430.867244318
271 5 -162443292.561115503
272 5 -75226068.294152752
273 5 31124302.749104585
274 5 -617910376.757912278
275 5 -156065503.702184975
276 5 58214371.602457203
277 5 -204705543.436884850
278 5 34092639.706481144
279 5 -18148814.707595721
280 5 -277980785.906011879
281 5 -106329545.148010626
282 5 42832094.823616527
283 5 -1815886614.659667492
284 5 -1743953610.015382051
285 5 727485533.423977494
286 5 -711494682.811450481
287 5 397245446.379705727
288 5 -190302244.604993045
289 5 -1161674575.818985701
290 5 -549663509.849871755
291 5 218249257.368426651
292 5 -249410386.684365302
293 5 57903063.446770668
294 5 -29372172.027059071
295 5 -2431713946.565579891
296 5 -1532052584.348579645
297 5 619568474.180652857
298 5 -444435777.570916295
299 5 -329472203.216292381
300 5 138931892.746721566
301 5 -3784534791.154065609
302 5 2769474537.397497177
303 5 -1341236659.320678473
304 5 -2914645042.074384212
305 5 1027312984.288034678
306 5 -539978787.620608330
307 5 -799285714.753651738
308 5 -427558736.756610572
309 5 172532045.873409182
310 5 -3930766251.097259998
311 5 516561733.610138178
312 5 -351686890.283815801
313 5 -176864531.106650919
314 5 50778855.615483694
315 5 -25119004.721543703
316 5 -3066601595.793293476
317 5 -1624957255.222749472
318 5 633741936.660900116
319 5 -4459518126.444023132
320 5 -4195587632.422589779
321 5 1710255343.850136995
322 5 -1193940844.222181082
323 5 -677995234.335835576
324 5 274082266.216769636
325 5 -140946935.596724361
326 5 12381150.726290945
327 5 -7546335.790385145
328 5 -642917169.740345597
329 5 -77761624.937426835
330 5 19778979.989950627
331 5 -483138958.264239907
332 5 130799079.017754659
333 5 -65085358.258022569
334 5 -621641897.707046390
335 5 -180222260.453980625
336 5 68176961.944774270
337 5 -4083959572.664358139
338 5 1605076135.745038271
339 5 -843757952.386063695
340 5 -757281895.877790570
341 5 354125808.579635799
342 5 -172240510.077737063
343 5 -2941051645.212049007
344 5 -1729655357.432468653
345 5 680179375.451822758
346 5 -1368.850195044
347 5 -479.445707496
348 5 196.468932963
349 5 -1343.881173144
350 5 -537.120618703
351 5 226.358242927
352 5 -3619.282696622
353 5 -1851.669895536
354 5 796.577387803
355 5 -7.771043327
356 5 -2.493938133
357 5 1.016186231
358 5 -444.548595317
359 5 -122.740335697
360 5 50.314579089
361 5 -30635.818937628
362 5 -17533.929006008
363 5 7493.200286169
367 5 -1591.637059862
368 5 -526.175976684
369 5 218.258579741
370 5 -39464.616727369
371 5 -24282.165009503
372 5 10461.104882290
373 5 -9406.236672540
374 5 -4300.609585538
375 5 1823.829800333
376 5 -615.058642703
377 5 -228.919321852
378 5 96.255632637
379 5 -45852.931889480
380 5 -43195.820210160
381 5 18724.176446783
382 5 -218.154601767
383 5 -72.746059815
384 5 30.394567160
385 5 -1578.807832867
386 5 -741.872610691
387 5 317.946371972
391 5 -119436.900919946
392 5 -95227.112566142
393 5 41068.681958589
394 5 -6051.042730685
395 5 -3028.940970322
396 5 1288.780966501
397 5 -166427.816849684
398 5 -126316.870098901
399 5 54607.574449258
400 5 -290840972.997274041
401 5 117452841.326860532
402 5 -56792545.604574621
403 5 -206849209.439658552
404 5 23161633.833709393
405 5 -13441534.238312963
427 5 -1647.143475430
428 5 -504.598616575
429 5 209.704278019
430 5 -21.874910907
431 5 -12.558112158
432 5 5.461970999
433 5 -11141.362341781
434 5 -6324.656769792
435 5 2731.341678529
445 5 -155336752.634238482
446 5 6222836.208035647
447 5 -4950010.486147268
448 5 -199.583246688
449 5 -61.663326448
450 5 25.482337539
454 5 -169469259.942690223
455 5 -27884965.351310551
456 5 9962109.187356390
466 5 -4340.143992490
467 5 -1281.367985857
468 5 519.056644044
481 5 -81305.524033135
482 5 -56175.469245241
483 5 24533.696897957
505 5 -554.432497288
506 5 -137.099964877
507 5 54.702800138
508 5 -76818.614831393
509 5 -69496.649620122
510 5 30269.912297254
517 5 -25.512269408
518 5 -5.754412606
519 5 2.277492414
544 5 -6970.338774562
545 5 -1878.154765504
546 5 755.521398735
562 5 -741047153.977651596
563 5 245629541.296014965
564 5 -123732776.499588519
565 5 -41.066906997
566 5 -20.480575212
567 5 8.983765883
568 5 -723.971561449
569 5 -290.918959632
570 5 126.849534517
574 5 -905.889857707
575 5 -173.394379860
576 5 67.343023242
583 5 -1645.788152610
584 5 -38.336741689
585 5 -1.905331932
589 5 -25.539510088
590 5 -13.949464645
591 5 6.119502538
595 5 -140145843.167219788
596 5 -6842945.689894914
597 5 1116832.084880906
598 5 -852.174719412
599 5 -526.482961172
600 5 231.403570015
619 5 -11243.921379003
620 5 -8530.519473361
621 5 3732.343584027
628 5 -8934.802940927
629 5 -1116.898604537
630 5 394.812119660
643 5 -14997.638048969
644 5 -103.911128322
645 5 -122.017462177
664 5 -21670.571628036
665 5 -17366.770914936
666 5 7569.781131395
673 5 -67728.611556257
674 5 -60590.308604491
675 5 26666.270501237
682 5 -285.562430344
683 5 -17.160940241
684 5 4.356819534
685 5 -75232186.560336545
686 5 -60001934.277566202
687 5 25707449.357115619
688 5 -112670.686290674
689 5 -91004.964335796
690 5 39782.100773483
691 5 -15.412086183
692 5 1.510141995
693 5 -0.811906034
697 5 -66622.234756382
698 5 -43360.049534903
699 5 18670.849191717
703 5 -2298.201719060
704 5 -531.410499472
705 5 214.959813968
715 5 -135.940086378
716 5 -25.059649227
717 5 9.596778773
718 5 -56.181654835
719 5 5.104367796
720 5 -2.919669292
721 5 -80343.466248280
722 5 -54146.660357791
723 5 23503.610735697
724 5 -216772.685703119
725 5 -184143.351989624
726 5 80580.252589407
733 5 -7763.621497282
734 5 -1527.608334580
735 5 616.049217016
736 5 -5445.960586706
737 5 -1661.492264049
738 5 717.866851877
742 5 -76595.076210721
743 5 -52651.990115805
744 5 22932.823219520
760 5 -51502.239562538
761 5 -36708.713087403
762 5 16221.488156899
763 5 -4146.448325861
764 5 -20.588173531
765 5 -31.440211455
766 5 -146472.634788376
767 5 -140541.240994706
768 5 61502.460813196
784 5 -1472.264089352
785 5 -343.264585681
786 5 140.017385223
796 5 -1750.185707287
797 5 -42.589412529
798 5 1.419186980
802 5 -163.896496176
803 5 4.690803832
804 5 -3.729517454
811 5 -1489.974760546
812 5 -4.025919456
813 5 -10.875604716
832 5 -971.559600715
833 5 135.466298106
834 5 -65.522091277
841 5 -257.181106064
842 5 190.698138031
843 5 -85.814849418
844 5 -76701550.340672582
845 5 -54447460.216272332
846 5 23206209.157868359
856 5 -834.161729420
857 5 112.500837290
858 5 -57.119897587
874 5 -14.568782397
875 5 2.518352724
876 5 -1.242982106
877 5 -78.402910113
878 5 22.318537974
879 5 -10.637849585
880 5 -353.943781555
881 5 25.164630127
882 5 -15.247049517
883 5 -49552.683388473
884 5 -29017.236668137
885 5 12537.953630393
898 5 -6369.244494168
899 5 4530.210874162
900 5 -2059.465357983
952 5 -148139.975344771
953 5 75375.939344489
954 5 -35249.134128712
958 5 -72928.908691995
959 5 55282.187282095
960 5 -24692.165268294
961 5 -259.960445210
962 5 122.514789953
963 5 -57.302576318
964 5 -13523.969759626
965 5 8525.002406107
966 5 -3814.629301476
967 5 -408.613369132
968 5 167.604216663
969 5 -78.974606268
970 5 -75977.066038945
971 5 41795.582845226
972 5 -19316.990275680
973 5 -75353.733286299
974 5 36245.640910163
975 5 -16845.287534666
976 5 -42404.522428493
977 5 15091.320350717
978 5 -7067.959322147
979 5 -14907.575266375
980 5 8008.901145035
981 5 -3571.022405571
982 5 -841.733778534
983 5 262.033184892
984 5 -125.263794492
988 5 -134607.717183816
989 5 102765.706288840
990 5 -45783.927957115
994 5 -707.446344034
995 5 90.147123426
996 5 -48.254377471
997 5 -408.516300089
998 5 90.039881446
999 5 -44.756763829
1000 5 -66.952043227
1001 5 31.240400666
1002 5 -14.673476079
1003 5 -223865.918274545
1004 5 124506.295230247
1005 5 -57973.615580778
1006 5 -54581.639527832
1007 5 20262.310713732
1008 5 -9693.213411077
1021 5 -52617.283154634
1022 5 21194.220366531
1023 5 -10038.268849873
1024 5 -17842.062566889
1025 5 10209.113705084
1026 5 -4549.348009742
1039 5 -20195.638700633
1040 5 16468.700247167
1041 5 -7316.094372557
1048 5 -79916.230064872
1049 5 33256.736304602
1050 5 -15554.549163381
1063 5 -53700.009161540
1064 5 21291.355020033
1065 5 -9979.890035044
1069 5 -15133.846219825
1070 5 10222.625352720
1071 5 -4692.998300958
1078 5 -680.005068486
1079 5 357.262735158
1080 5 -165.267735100
1084 5 -1872.535964185
1085 5 708.828926632
1086 5 -330.480407211
1096 5 -17026.392053123
1097 5 1307.906185746
1098 5 -726.424129277
1099 5 -296.169654255
1100 5 193.180851543
1101 5 -89.609086471
1426 5 -1961.937125072
1427 5 327.135275879
1428 5 -166.592946640
1 6 -2279377679.757060051
2 6 922586457.115814447
3 6 654808766.034593821
4 6 13828482827.945905685
5 6 11019244010.511985779
6 6 30034119559.232170105
7 6 88.294562246
8 6 109431.523006795
9 6 520.737422972
10 6 1639.581597077
11 6 1129.830168509
12 6 -230748.280280708
67 6 -5565.552974977
68 6 84459.239985195
69 6 -38263.011968707
70 6 -5493.612415742
71 6 83377.093095673
72 6 -37814.853971066
100 6 -89.074757481
101 6 -432.736345804
102 6 10.251840409
103 6 -131.089477826
104 6 -58.596421479
105 6 -470.282826214
106 6 43734371.415059492
107 6 -1976911.298759415
108 6 33955651.474198572
109 6 20598418.465471845
110 6 5879703.497558909
111 6 31320422.100016966
112 6 -129093305.054299131
113 6 -41070273.191406652
114 6 59475483.020201549
115 6 72269453.213274658
116 6 -17478821.292517096
117 6 41349934.910921395
118 6 -29908164.491197336
119 6 -15517411.764470281
120 6 21603629.477444284
121 6 -4112021.859273971
122 6 11719475.029053619
123 6 36506169.369734995
124 6 -749855823.199291587
125 6 -637025451.940777063
126 6 214502567.823176682
127 6 -42829039.680899300
128 6 -34416563.159753978
129 6 30714791.303068761
130 6 -63085827.841797791
131 6 -49308944.495782994
132 6 43066812.190270528
133 6 45127077.764899813
134 6 1995922.258609252
135 6 37364990.653572813
136 6 -19510731.614925109
137 6 8514133.141367918
138 6 34268835.047110416
139 6 -34756.757423092
140 6 -19854.907279873
141 6 31112.122497393
142 6 -37166097.968231723
143 6 -21664031.268701512
144 6 26460253.889989175
145 6 -750064119.684441805
146 6 -578022692.131269455
147 6 142356851.561619341
148 6 -14350493.865798911
149 6 10913573.475375686
150 6 37705470.979156993
151 6 480765911.519966424
152 6 -250490462.208767146
153 6 113642854.549211830
154 6 -36304560.261120178
155 6 -4081577.522777095
156 6 33761831.099943146
157 6 -376720.275925521
158 6 -303208.297075606
159 6 336984.043707244
160 6 1352976086.745943308
161 6 -1209298129.364115238
162 6 -592123059.904480815
163 6 55973672.031446442
164 6 -1245179.674605934
165 6 40253415.752233803
166 6 94447436.810260370
167 6 -747292.517923450
168 6 14433080.399501821
169 6 -44013183.261503614
170 6 -31281639.526085477
171 6 31219977.530933443
172 6 20130800.266742777
173 6 7872997.711927474
174 6 17650571.531344596
175 6 -29718.940192919
176 6 -18751.106443467
177 6 25359.333117618
178 6 -24253923.355218463
179 6 -11169684.441059578
180 6 17956688.365798548
181 6 -796808651.005880475
182 6 -604053641.308582306
183 6 -172481149.139975518
184 6 -251561.209479956
185 6 -209994.102182515
186 6 197466.228545579
187 6 -49472385.034492694
188 6 -44469513.464265220
189 6 35583854.634521008
190 6 -259773.907013407
191 6 -240869.985347471
192 6 201042.380733178
193 6 -139879687.166132569
194 6 -50310987.830073632
195 6 61158327.640590429
196 6 -1305898815.843834639
197 6 -1272748025.588805199
198 6 235987361.676811665
199 6 -10982.068703665
200 6 -8493.214156749
201 6 9500.228851186
202 6 -6311294.556540040
203 6 3762776.763846133
204 6 21868546.205513351
205 6 12895407.726355437
206 6 4332682.323672813
207 6 24621675.301905733
208 6 -758901490.006330132
209 6 -572733407.705008984
210 6 111140994.815706477
211 6 11268078.006917559
212 6 5228227.157278675
213 6 26269571.493307523
214 6 -123343349.904742643
215 6 -25166930.846708432
216 6 46177794.383961096
217 6 526128138.595845640
218 6 -265720703.221984744
219 6 92738782.252610058
220 6 -1328492870.357125998
221 6 -1204701114.061324358
222 6 35682101.651655734
223 6 -532366756.752807081
224 6 -322805386.035570264
225 6 3935248.291707873
226 6 -919467759.184999704
227 6 -771186693.622436523
228 6 172103439.039461553
229 6 418625951.123375654
230 6 -172992734.162670016
231 6 52620535.336526617
232 6 -149308978.217767537
233 6 -39745073.643997334
234 6 46648740.404055767
235 6 101257798.529176220
236 6 -33152427.126454163
237 6 52289469.644188389
238 6 54493376.442541063
239 6 -4065161.849023329
240 6 34570972.514021717
241 6 204167072.381686449
242 6 -45974959.472462803
243 6 49210343.582143426
244 6 -858419796.012457967
245 6 -781775922.246607304
246 6 244177586.968334287
247 6 22091176.611420859
248 6 8122550.008866598
249 6 35228395.981163055
250 6 -38640571.975542955
251 6 4602752.753198285
252 6 35411864.145830132
253 6 23932530.895099800
254 6 854462.699809945
255 6 23534439.626178876
256 6 -1136262316.366839409
257 6 -959726369.993248940
258 6 -88664119.871037781
259 6 -51494170.425208762
260 6 -24837522.299203515
261 6 35962043.837809294
262 6 751207909.640293241
263 6 -517507750.408879340
264 6 201236245.298992097
265 6 -725591311.782570004
266 6 -667336538.568331003
267 6 -363335267.585357785
268 6 173297747.945295960
269 6 -27801531.860730831
270 6 12534580.064677421
271 6 -69702666.925731003
272 6 -24814483.549314413
273 6 45829775.316491410
274 6 -127547313.990540594
275 6 -18642578.201096512
276 6 47646914.069823571
277 6 51151000.989661761
278 6 294400.488406137
279 6 39247652.221675284
280 6 -95831597.583122775
281 6 -25579145.295554161
282 6 52320234.602713794
283 6 -1663339299.598283768
284 6 -1828506690.634406328
285 6 363339160.990082324
286 6 501786319.525650918
287 6 -281886722.782628655
288 6 130307876.583989903
289 6 -503104280.494310141
290 6 -288282096.205490649
291 6 6714393.098824203
292 6 80783106.346741930
293 6 -8031613.667025620
294 6 51934096.323346838
295 6 -1433194824.223836422
296 6 -1162109152.949685097
297 6 701831.090064347
298 6 -316021602.324739814
299 6 -218319275.222851127
300 6 147460065.666082114
301 6 3528332269.367882729
302 6 -3586247061.328616619
303 6 168914354.075705767
304 6 1403009041.328881502
305 6 -1179503664.749361992
306 6 -502409866.940106630
307 6 -397605315.975110471
308 6 -238105255.971250355
309 6 39314653.539425731
310 6 929207175.195603609
311 6 -1395287544.806375742
312 6 -1131558283.884054184
313 6 68331056.058041602
314 6 -11957552.532832056
315 6 40651055.516684011
316 6 -1470865016.909368038
317 6 -1456734418.601031780
318 6 -437207430.782811284
319 6 -3907489520.053606987
320 6 -5682088549.049145699
321 6 -37514316.630821466
322 6 -632683911.771763206
323 6 -419135824.470400810
324 6 43883369.911757052
325 6 22816491.389657401
326 6 4163859.500175086
327 6 26118856.639472827
328 6 -38201356.057833724
329 6 -43837198.372990809
330 6 -63989618.811683849
331 6 177630782.175087512
332 6 -27091323.306687716
333 6 109220650.892386273
334 6 -152347460.283003420
335 6 -38676247.136279941
336 6 29538710.598372832
337 6 2195496974.210952282
338 6 -2368432433.003462791
339 6 -913196265.653449178
340 6 453419535.914036334
341 6 -216358051.005010664
342 6 93590892.370430380
343 6 -1577162599.252898216
344 6 -1708952962.619497776
345 6 -423544609.736144900
346 6 -426.465298247
347 6 -89.331425179
348 6 442.091288653
349 6 -486.813819655
350 6 -162.459269166
351 6 621.520488404
352 6 -1725.566379252
353 6 -885.421445101
354 6 2145.084177472
355 6 -2.181104415
356 6 -0.366462422
357 6 2.527274143
358 6 -103.370591680
359 6 -16.210230301
360 6 182.693300957
361 6 -16562.332349992
362 6 -8601.356276723
363 6 15699.746497320
367 6 -461.875311857
368 6 -105.098174008
369 6 659.130380650
370 6 -23027.077073407
371 6 -13639.509377838
372 6 23517.340601078
373 6 -3970.134437435
374 6 -1582.923956079
375 6 4513.344212634
376 6 -205.040977109
377 6 -63.323910191
378 6 286.066003100
379 6 -41697.190713807
380 6 -37817.594901068
381 6 33753.192970902
382 6 -63.856904308
383 6 -16.733620813
384 6 99.189944712
385 6 -685.072111034
386 6 -318.650390098
387 6 894.818397200
391 6 -91631.359251521
392 6 -69018.380807746
393 6 73876.001930721
394 6 -2825.397528340
395 6 -1255.465655209
396 6 2968.761135905
397 6 -121239.270793159
398 6 -88347.646236315
399 6 107753.718399317
400 6 151597553.510080278
401 6 -50640063.636555761
402 6 64907762.301808059
403 6 39093271.103845417
404 6 4101378.258488204
405 6 33415618.105740178
427 6 -435.054410331
428 6 -99.274598047
429 6 738.951895793
430 6 -11.788638921
431 6 -7.477015423
432 6 15.480055977
433 6 -5950.166897061
434 6 -3415.289551541
435 6 6978.172846399
445 6 16903841.812955838
446 6 6301580.480242866
447 6 30728154.863688320
448 6 -53.353545052
449 6 -10.782660252
450 6 82.801904568
454 6 -19340635.949438535
455 6 4432636.304181518
456 6 33036648.635437991
466 6 -1100.290378346
467 6 -142.859690367
468 6 1424.648330795
481 6 -53418.456394606
482 6 -39859.914715368
483 6 63403.281361466
505 6 -112.316647603
506 6 -5.503183598
507 6 184.370109266
508 6 -66948.942482894
509 6 -60047.372796993
510 6 61913.539934694
517 6 -4.576135580
518 6 -0.042888265
519 6 8.644856652
544 6 -1576.386159145
545 6 -140.577137503
546 6 2316.647004205
562 6 326691506.329115927
563 6 -111811966.152384952
564 6 46785651.526058853
565 6 -18.821337893
566 6 -13.004519452
567 6 32.675132750
568 6 -259.677542859
569 6 -158.445723569
570 6 530.119852754
574 6 -129.355740973
575 6 9.105765758
576 6 310.593728484
583 6 64.364942791
584 6 70.370068424
585 6 488.072927965
589 6 -12.959051836
590 6 -9.187400949
591 6 20.570478481
595 6 1561971.394895364
596 6 6463422.440872289
597 6 29280856.087763041
598 6 -494.437767062
599 6 -378.965164662
600 6 722.584710767
619 6 -8148.498375227
620 6 -6617.212964190
621 6 9301.631537413
628 6 -638.994556279
629 6 286.951318517
630 6 2748.695300111
643 6 856.566475161
644 6 613.717470854
645 6 4630.045130183
664 6 -16661.171059127
665 6 -13566.478257621
666 6 16933.467010820
673 6 -58058.902878777
674 6 -56682.282213715
675 6 67194.556928133
682 6 -0.310614047
683 6 11.843195574
684 6 85.589300777
685 6 -57777009.738443039
686 6 -42659608.442693219
687 6 39567523.249484643
688 6 -87220.636546160
689 6 -73462.552092569
690 6 93587.432397982
691 6 2.679518162
692 6 0.135355173
693 6 6.212888916
697 6 -41297.259020352
698 6 -25513.037725116
699 6 39212.576763224
703 6 -424.459303207
704 6 -40.375125772
705 6 950.694846565
715 6 -18.404642276
716 6 2.151041025
717 6 43.061084855
718 6 9.273255722
719 6 1.534668939
720 6 16.821608784
721 6 -51551.643797344
722 6 -35283.721714020
723 6 55624.781159588
724 6 -176730.459581655
725 6 -156348.122787823
726 6 187487.724020258
733 6 -1142.531788751
734 6 -126.077395719
735 6 3546.940635707
736 6 -1403.815020762
737 6 -777.730697960
738 6 3714.912717822
742 6 -50118.908895127
743 6 -36107.305446208
744 6 56753.950247822
760 6 -34711.524036766
761 6 -30919.517433265
762 6 49726.977729512
763 6 247.764632045
764 6 130.571565071
765 6 1527.240321668
766 6 -135292.479682746
767 6 -132242.625492662
768 6 134457.126982780
784 6 -274.302134638
785 6 -38.180133683
786 6 655.384759073
796 6 67.251752269
797 6 59.096737242
798 6 628.522129469
802 6 15.832027230
803 6 4.998784967
804 6 58.825552829
811 6 93.785072717
812 6 28.120256764
813 6 631.795803712
832 6 216.769672491
833 6 -53.859707614
834 6 557.325149225
841 6 238.230965008
842 6 -187.730527253
843 6 236.863440183
844 6 -52198535.815032892
845 6 -33534918.603962451
846 6 35313734.649623662
856 6 179.635154758
857 6 -7.611384861
858 6 361.982885652
874 6 3.758217879
875 6 -0.363018691
876 6 6.444175470
877 6 30.119671254
878 6 -6.453225967
879 6 34.556947978
880 6 50.663386921
881 6 11.208833757
882 6 106.863274899
883 6 -27372.741861657
884 6 -16135.730562699
885 6 31290.319661390
898 6 5645.857248024
899 6 -3963.607956875
900 6 4793.601465702
952 6 95252.060086153
953 6 -42039.974203851
954 6 63084.680532697
958 6 69287.858963234
959 6 -59751.316770748
960 6 76988.084354041
961 6 155.739612141
962 6 -62.939134866
963 6 114.407047679
964 6 10761.483927447
965 6 -8073.545137518
966 6 12834.773339435
967 6 215.702426005
968 6 -72.076295316
969 6 168.029492885
970 6 52591.326568254
971 6 -26416.893907558
972 6 40540.194370433
973 6 46030.556792893
974 6 -19659.294281888
975 6 37302.428142629
976 6 19768.267973824
977 6 -6148.587616112
978 6 20931.516557757
979 6 10242.963547280
980 6 -7401.891436228
981 6 14148.897459796
982 6 348.528407376
983 6 -77.272726186
984 6 331.964608931
988 6 128978.539271517
989 6 -114896.593936707
990 6 148633.650343325
994 6 145.607630300
995 6 11.374771553
996 6 215.494042600
997 6 126.782047403
998 6 -10.579801452
999 6 131.340376791
1000 6 39.735391595
1001 6 -15.642324721
1002 6 27.099080552
1003 6 156450.449110547
1004 6 -77310.515860904
1005 6 101572.429399044
1006 6 26343.118926943
1007 6 -7328.683281665
1008 6 17988.450699568
1021 6 27318.762855737
1022 6 -8731.970520731
1023 6 19793.468133967
1024 6 13000.462517236
1025 6 -9751.831248443
1026 6 17396.433770990
1039 6 20672.696901867
1040 6 -19877.992953500
1041 6 24238.030505429
1048 6 42774.747720106
1049 6 -15241.053657206
1050 6 37378.545342015
1063 6 27519.718154440
1064 6 -9218.199866075
1065 6 24782.356190648
1069 6 12738.100667419
1070 6 -8082.758380189
1071 6 9237.215192120
1078 6 450.914004873
1079 6 -215.613881192
1080 6 359.525247610
1084 6 922.177298955
1085 6 -314.932359310
1086 6 962.042399075
1096 6 2565.816187340
1097 6 134.083522686
1098 6 7275.560776203
1099 6 240.892799526
1100 6 -143.881581158
1101 6 142.475040002
1426 6 490.544517359
1427 6 -5.772309724
1428 6 672.288724784
1 7 -1710105.958237092
2 7 17538.863399820
3 7 50033.024861939
4 7 -475.816877293
5 7 -48439.632859085
6 7 88.294562246
7 7 281245571.835207701
8 7 -71150973.886833996
9 7 -19744122.697414037
10 7 -1079501628.269808769
11 7 -2671615972.504317284
12 7 -2360639293.171350479
13 7 -4427040.046653990
14 7 387668.068098917
15 7 -255653.461496633
16 7 -9808.659668187
17 7 -142498.608900215
18 7 -46500.186917341
67 7 -718.667623742
68 7 -7.278972589
69 7 -17.564442934
70 7 -15973.251707069
71 7 3333.124717532
72 7 -1947.068964479
73 7 -1138.942839180
74 7 2227.328329849
75 7 -1008.067343497
100 7 715906.603370842
101 7 9443.537855016
102 7 -16609.618298583
103 7 -163.155345029
104 7 -16672.717303266
105 7 -204.381096930
106 7 4759285.063525234
107 7 -1292056.089523127
108 7 -897196.877666937
109 7 6087310.446365465
110 7 -756761.601167474
111 7 -1352665.286449059
112 7 21581659.693935324
113 7 8114612.335189552
114 7 -5753707.533666254
115 7 3864970.873429751
116 7 -1625565.012713293
117 7 -593061.463178767
118 7 6956119.121150278
119 7 3925294.810144383
120 7 -3057245.947215973
121 7 12654796.403167214
122 7 246958.451823848
123 7 -1958137.534648506
124 7 81856933.968587413
125 7 69734839.208433345
126 7 -22278866.402198896
127 7 9031652.499297846
128 7 7465795.109679112
129 7 -4947643.093465004
130 7 11787117.637056068
131 7 9496026.935916103
132 7 -6224094.678667447
133 7 5821962.982509732
134 7 -1297111.686842046
135 7 -1195087.143593002
136 7 12517290.457071297
137 7 860096.463829104
138 7 -2165674.319489948
139 7 155713.879911203
140 7 94966.626646349
141 7 -65665.086375782
142 7 8034724.778284025
143 7 4989148.473287569
144 7 -3745273.919160052
145 7 82486504.623495564
146 7 63253854.947854884
147 7 -15654487.516948339
148 7 13467262.174706519
149 7 618525.927600378
150 7 -2183084.346226718
151 7 -6065018.478690076
152 7 3785447.018726256
153 7 -128294.919620337
154 7 9673571.359770754
155 7 2374906.484906191
156 7 -3073609.575396904
157 7 558183.629167645
158 7 456649.499438831
159 7 -314796.038165068
160 7 -27690945.114435028
161 7 64584253.470129430
162 7 50674960.620044455
163 7 5522444.276931458
164 7 -1461837.743969884
165 7 -1144195.482444229
166 7 13758138.641950103
167 7 -520041.512223033
168 7 1206137.016869966
172 7 16097804.354442727
173 7 420297.498065464
174 7 -9922.054600583
175 7 144809.374236663
176 7 96467.115549373
177 7 -65061.381393250
178 7 6093959.929902824
179 7 3132922.322417124
180 7 -2532427.138174002
181 7 93830336.822468549
182 7 63546751.742080420
183 7 9346730.971345790
184 7 460984.065086363
185 7 396452.716315772
186 7 -249660.923949354
187 7 10173767.145496139
188 7 9340104.446646180
189 7 -5884251.815525306
190 7 487661.010651200
191 7 463108.532337288
192 7 -280917.212689387
193 7 22497767.357652001
194 7 9221283.331520511
195 7 -6087730.307120018
196 7 132283813.228417441
197 7 127414926.482174739
198 7 -25524241.286559302
199 7 90442.113239606
200 7 71770.390106218
201 7 -47896.334548274
202 7 5957424.594242116
203 7 413295.086197932
204 7 -1539614.176544319
205 7 5079115.236427437
206 7 -527353.906230119
207 7 -1102120.873664193
208 7 83727441.511278242
209 7 62485574.599859871
210 7 -13009717.545194678
211 7 5547889.283500696
212 7 -460064.533137349
213 7 -1263999.600043802
214 7 23508186.530872703
215 7 6449554.326086331
216 7 -4062053.354969820
217 7 -7008243.512827741
218 7 4851665.520673349
219 7 1295282.609468031
220 7 135998055.000864834
221 7 119372540.691895097
222 7 -9011984.989026975
223 7 65197631.778197408
224 7 37925930.021467239
225 7 -3066584.097443104
226 7 97865538.032304004
227 7 81453546.451165378
228 7 -18774317.622643735
229 7 -2223737.155261209
230 7 2281436.979990920
231 7 2381956.046318905
232 7 25976217.319374070
233 7 8255724.758555631
234 7 -4364740.752637006
235 7 3408110.056984476
236 7 -1738575.720494537
237 7 -635685.493994804
238 7 4935637.199367806
239 7 -1420482.661625573
240 7 -777253.908675178
241 7 4572583.871200175
242 7 -1390234.384698352
243 7 232493.429662875
244 7 91865223.378389850
245 7 83651104.443042442
246 7 -25354409.007156219
247 7 7313843.890831218
248 7 -773908.991436205
249 7 -1579530.669435306
250 7 14375093.410343487
251 7 1766610.546818275
252 7 -2503455.983340443
253 7 4286716.515579320
254 7 -896726.029727219
255 7 -672636.643260406
256 7 121138811.189808100
257 7 96619746.030167058
258 7 1487798.221567277
259 7 10191139.335006127
260 7 5396533.048936832
261 7 -4366493.315365572
262 7 -16218973.317404691
263 7 12452401.283814296
264 7 -1924846.263157386
265 7 92195566.979422003
266 7 67064771.781503290
267 7 23415200.620318256
268 7 8967634.457724892
269 7 -770823.158340923
270 7 2114298.924450312
271 7 13154519.097930992
272 7 5512887.954273708
273 7 -4812687.115270096
274 7 26271940.628035530
275 7 6031539.766527873
276 7 -3731923.418631279
277 7 5653538.411440480
278 7 -1395780.994028049
279 7 -1181558.857989614
280 7 17612597.168284256
281 7 5987332.374979270
282 7 -4985509.719910476
283 7 163546862.603497088
284 7 178010970.654455334
285 7 -37405277.822057232
286 7 -7084102.694791340
287 7 4532907.841360105
288 7 -675516.735365495
289 7 62789414.011165842
290 7 34643407.909819677
291 7 -3004801.714255447
292 7 5202518.853458537
293 7 -1744310.049915933
294 7 -1381776.872808080
295 7 147367953.289950699
296 7 116031194.961027831
297 7 -5217728.280596726
298 7 39898364.218042634
299 7 28416332.115400918
300 7 -15317198.423961466
301 7 -135753636.558235079
302 7 168688569.539760530
303 7 20891013.448191926
304 7 -31492024.043220345
305 7 60534282.399363987
306 7 45364468.953002952
307 7 50148577.391550124
308 7 29478375.617642235
309 7 -5730949.157880641
310 7 8033486.190339080
311 7 93450734.051477507
312 7 84388316.963024199
313 7 4289072.587007258
314 7 -1588153.878725175
315 7 -755156.816879180
316 7 156309554.319668502
317 7 138642996.180581272
318 7 26358497.364488602
319 7 353170374.289350092
320 7 497013329.185608745
321 7 -13460058.668914184
322 7 73412939.304774612
323 7 47487702.696246356
324 7 -6776634.824190477
325 7 5484492.406415844
326 7 -812742.978964909
327 7 -966709.308376531
328 7 20495684.829797167
329 7 5728239.089889198
330 7 4661922.764684617
331 7 4702583.534985327
332 7 -2350751.522386690
333 7 -3420588.730256653
334 7 28181815.017986491
335 7 8189657.255239738
336 7 -2805173.998870276
337 7 -63819306.179447405
338 7 131959247.055194184
339 7 76625820.325242773
340 7 -4685818.572995045
341 7 2983002.584381788
342 7 572437.523802197
343 7 163172826.180079043
344 7 159706253.716263771
345 7 24172895.837659277
346 7 18822.006936534
347 7 6392.495457490
348 7 -3969.318998050
349 7 19248.398805972
350 7 7559.978407804
351 7 -5477.340549824
352 7 34465.331757945
353 7 17641.290896056
354 7 -13688.742314412
355 7 1389.977977170
356 7 433.176355963
357 7 -268.512348316
358 7 10255.961933750
359 7 2777.971986950
360 7 -1905.032294912
361 7 106836.515462359
362 7 59933.908525748
363 7 -42147.875418701
364 7 4505477.398275431
365 7 -1785779.645512683
366 7 -1066235.600285607
367 7 20027.943287625
368 7 6479.400817890
369 7 -4516.889592204
370 7 126189.663345369
371 7 76932.668454019
372 7 -56594.038103540
373 7 53381.693867067
374 7 23967.820314808
375 7 -17400.888454580
376 7 12765.769591835
377 7 4678.720195882
378 7 -3415.516291156
379 7 188234.859136003
380 7 174511.910944463
381 7 -108883.856745476
382 7 7412.690202862
383 7 2434.940422476
384 7 -1763.004796749
385 7 21971.182321088
386 7 10308.552126367
387 7 -7985.564336814
388 7 4212598.452813533
389 7 -1795569.532980025
390 7 -936178.288112069
391 7 265438.497986544
392 7 207480.605406984
393 7 -134528.535768319
394 7 44291.716218934
395 7 21758.432358010
396 7 -15566.577253819
397 7 302746.315537995
398 7 226662.397021005
399 7 -156317.877338144
427 7 20076.801855017
428 7 6059.661117528
429 7 -4378.435157019
430 7 2811.582824939
431 7 1649.717372462
432 7 -1331.713492479
433 7 63681.732334948
434 7 36232.766225525
435 7 -28016.757030095
445 7 6211365.690243345
446 7 -644198.218510672
447 7 -1407247.549673366
448 7 6992.057900517
449 7 2117.121812787
450 7 -1467.536733637
451 7 11330051.952993354
452 7 5301426.057063974
453 7 -4405681.098496785
454 7 8996212.056124145
455 7 987204.295541016
456 7 -2444825.827377321
466 7 32482.440968784
467 7 9312.769684059
468 7 -5851.588140928
481 7 195248.642812840
482 7 138059.844620607
483 7 -109827.458974712
505 7 11306.819273372
506 7 2724.446816358
507 7 -1671.577304777
508 7 235302.099951230
509 7 212096.554025793
510 7 -144212.251390803
517 7 2400.413285772
518 7 528.789502525
519 7 -319.463091533
526 7 21640.521831727
527 7 4713.776790590
528 7 -3781.054491432
544 7 40641.959226502
545 7 10645.316566713
546 7 -6708.354242172
562 7 1074944.537372554
563 7 392999.221448962
564 7 1748254.089751016
565 7 3600.903211622
566 7 1908.845027284
567 7 -1679.940790149
568 7 14068.136183654
569 7 5965.729507272
570 7 -5266.420524280
574 7 14135.235293295
575 7 2649.104124620
576 7 -1552.257391482
583 7 18574.445581906
584 7 485.929146940
585 7 399.403345554
589 7 2956.232804373
590 7 1707.522324306
591 7 -1477.227909608
613 7 225797.060027348
614 7 213620.755360364
615 7 -170119.445079970
619 7 76490.278433498
620 7 59370.851063391
621 7 -45740.323849293
628 7 43704.132596100
629 7 5380.289602131
630 7 -2542.332245369
634 7 234689.280374901
635 7 175927.121826624
636 7 -149564.328723471
643 7 56185.672943156
644 7 555.751567755
645 7 1728.290838177
664 7 111369.784730342
665 7 89752.377217041
666 7 -65183.030835308
667 7 3590.255798657
668 7 158.854243064
669 7 32.214345163
673 7 217274.301825156
674 7 201633.599832784
675 7 -153619.006587161
682 7 7733.928619616
683 7 475.313605623
684 7 -41.835584666
688 7 259082.917538735
689 7 212495.375274061
690 7 -159488.513272306
691 7 1837.502584767
692 7 -170.955549674
693 7 235.522726423
697 7 170389.328932903
698 7 109383.402962821
699 7 -78096.772707140
703 7 22862.466252960
704 7 5199.092350498
705 7 -3513.055282608
715 7 5460.092215518
716 7 985.337277890
717 7 -545.043249886
718 7 3501.796932265
719 7 -289.959565138
720 7 375.793944227
721 7 191284.266562034
722 7 129464.663666069
723 7 -98572.857241720
724 7 378510.362654854
725 7 326689.415601946
726 7 -242928.559999496
733 7 41506.155048111
734 7 8099.814138804
735 7 -5622.384477588
736 7 36407.875439175
737 7 11638.587569757
738 7 -10169.357365690
739 7 29865.349375646
740 7 171.874582390
741 7 1055.339009765
742 7 188922.968270614
743 7 131669.537017417
744 7 -102482.562086886
763 7 29511.853033537
764 7 219.451174370
765 7 1085.696127739
766 7 345608.632734048
767 7 334320.699535228
768 7 -233308.840163703
784 7 18298.664122069
785 7 4217.003932170
786 7 -2943.474574031
796 7 19145.709421814
797 7 505.176786987
798 7 415.020087788
802 7 5889.227518314
803 7 -144.616518239
804 7 390.760060803
811 7 17682.210695899
812 7 75.116709062
813 7 749.526901200
823 7 18001.973490624
824 7 -3805.980877063
825 7 3262.009711831
832 7 14816.422031483
833 7 -2146.645126687
834 7 2853.623283655
841 7 13103.677138751
842 7 -9996.500497046
843 7 8351.331982088
844 7 10180572.609726550
845 7 6874902.667233485
846 7 -4866653.088245167
856 7 13703.907692029
857 7 -1787.405837075
858 7 2218.160281228
874 7 1843.378267126
875 7 -309.194326150
876 7 359.192644583
877 7 4579.754445046
878 7 -1260.386509653
879 7 1243.602244391
880 7 8738.654186720
881 7 -559.568114430
882 7 812.821107556
883 7 137688.543198903
884 7 80739.874013051
885 7 -62514.549459287
898 7 62647.838290715
899 7 -44306.590588438
900 7 34613.527392140
949 7 14622.329249254
950 7 -5781.212780539
951 7 4277.328422423
952 7 238416.593349976
953 7 -116818.574430213
954 7 84963.685823997
958 7 221930.646547456
959 7 -178881.585556232
960 7 154093.012913132
961 7 9794.262309857
962 7 -4438.719649100
963 7 3515.257119149
964 7 83379.807083865
965 7 -56376.111954578
966 7 52525.120074325
967 7 11585.293563270
968 7 -4554.887788797
969 7 3757.812045877
970 7 179071.557298889
971 7 -95817.841426150
972 7 74573.971875448
973 7 166309.458920054
974 7 -77635.410342364
975 7 62845.944664439
976 7 111795.091704516
977 7 -38911.656385267
978 7 36020.830588918
979 7 79214.178824821
980 7 -47185.158024158
981 7 47489.326370415
982 7 15296.876178739
983 7 -4553.569782096
984 7 4145.570710300
988 7 301859.419236074
989 7 -248128.006886506
990 7 215514.585776760
994 7 12588.332171847
995 7 -1485.451564617
996 7 1673.544425569
997 7 10020.255408101
998 7 -2078.719396559
999 7 1975.922629912
1000 7 4950.046534423
1001 7 -2213.382270352
1002 7 1696.191271923
1003 7 306154.532661820
1004 7 -164396.285446912
1005 7 116227.526098333
1006 7 128358.224160360
1007 7 -45420.936506515
1008 7 34903.478450906
1018 7 105636.663143763
1019 7 -46116.808477389
1020 7 32977.903307908
1021 7 129493.635382415
1022 7 -49911.117222456
1023 7 39134.502046041
1024 7 89884.515390388
1025 7 -56873.667152324
1026 7 56063.090506799
1039 7 126087.794210536
1040 7 -112073.595196898
1041 7 97017.303647249
1048 7 161110.591613178
1049 7 -64975.446693416
1050 7 54833.955499872
1060 7 38401.146473622
1061 7 -12802.874977706
1062 7 14865.463920334
1063 7 130063.665896139
1064 7 -49945.883686300
1065 7 43009.785080714
1069 7 92433.379755772
1070 7 -60885.466036968
1071 7 44381.201287331
1075 7 27664.700021942
1076 7 -19251.557065729
1077 7 13633.068691051
1078 7 16723.537553693
1079 7 -8542.800336968
1080 7 6922.370659962
1084 7 24091.453729706
1085 7 -8942.501262287
1086 7 8395.139834116
1096 7 60675.158068566
1097 7 -4481.314432457
1098 7 6482.877884097
1099 7 12676.933269641
1100 7 -7990.329362599
1101 7 5298.205428032
1102 7 50921.483910829
1103 7 24492.526006281
1104 7 -21927.261829839
1426 7 21321.787099190
1427 7 -3345.198391977
1428 7 3552.924921494
1 8 -15029.809444385
2 8 -1612375.416862796
3 8 7183.497700895
4 8 49488.008450187
5 8 35.235356333
6 8 109431.523006795
7 8 -71150973.886833996
8 8 112773974.700624719
9 8 130773671.161371589
10 8 2043570942.502055168
11 8 276124465.609185338
12 8 1016555641.371298552
13 8 -392132.033525932
14 8 -4420930.795907384
15 8 80984.328287052
16 8 127646.285185880
17 8 -6807.823750098
18 8 247431.788978160
67 8 -91.356419622
68 8 1470.323025197
69 8 132.848648565
70 8 -2803.084128809
71 8 45482.548591089
72 8 -2501.873546069
73 8 -456.533241752
74 8 7537.866342610
75 8 -2268.413175965
100 8 -9835.392028750
101 8 714965.095591293
102 8 1614.007763718
103 8 16740.828750048
104 8 -42.082175112
105 8 37967.095194991
106 8 807090.531166017
107 8 -1731183.291272128
108 8 -6448449.343222476
109 8 467064.492424027
110 8 -1659796.415663617
111 8 -6698875.644564277
112 8 -2211732.280133562
113 8 -4532102.614379589
114 8 -10353592.926623533
115 8 1289566.659125546
116 8 -2124692.601661988
117 8 -6510271.074317683
118 8 -88362.279643285
119 8 -729173.759366952
120 8 -3847200.906427079
121 8 211418.218781139
122 8 -3809494.952016697
123 8 -11059567.733971931
124 8 -16530429.698173916
125 8 -26144934.099961128
126 8 -16867992.049840979
127 8 -94254.436306173
128 8 -694103.371151586
129 8 -3881082.776885123
130 8 -446672.342117356
131 8 -1247210.436662095
132 8 -4639679.680884787
133 8 930773.572330589
134 8 -2156022.180672582
135 8 -7535194.749069599
136 8 -113537.729782863
137 8 -3396839.164166681
138 8 -10041877.472575679
139 8 24812.001033165
140 8 4536.159239582
141 8 -139819.190408417
142 8 -149328.154650028
143 8 -807531.744907230
144 8 -4102174.611783304
145 8 -16674050.473637495
146 8 -27111246.590145219
147 8 -20496412.623600993
148 8 13714.078571721
149 8 -3860889.220576436
150 8 -11178309.062851466
151 8 11113684.649479611
152 8 -14139165.114430871
153 8 -15059572.860962756
154 8 -374969.321963267
155 8 -1614366.124311690
156 8 -6412987.970079045
157 8 99289.328304510
158 8 65601.991139779
159 8 -434703.864398747
160 8 35668297.911791831
161 8 -75047292.105588630
162 8 -57135455.685825050
163 8 1129219.279451459
164 8 -2304649.500223357
165 8 -7714211.414833670
166 8 2577781.750169639
167 8 -8249338.969450806
168 8 -17742909.018244755
172 8 885331.176985909
173 8 -6804895.196699544
174 8 -15706716.841828354
175 8 23652.175244839
176 8 5838.193750936
177 8 -123990.432656819
178 8 -43310.855147061
179 8 -666251.780750424
180 8 -3619274.768248118
181 8 -17895883.049455196
182 8 -40002992.388887376
183 8 -37261105.095848769
184 8 70786.663933809
185 8 31044.017658386
186 8 -322713.066461101
187 8 -144288.016461036
188 8 -779994.775206793
189 8 -3949869.191916167
190 8 73480.069658531
191 8 38515.027865859
192 8 -315050.937810165
193 8 -2437988.356947352
194 8 -4774494.800307942
195 8 -10282314.599618675
196 8 -30386331.379465882
197 8 -51947229.929317906
198 8 -24452086.229713026
199 8 17007.858407200
200 8 9611.832598052
201 8 -73372.712288464
202 8 37052.198278430
203 8 -1124812.485588530
204 8 -5221472.316817316
205 8 282275.570743786
206 8 -1186117.241487496
207 8 -5479521.652777966
208 8 -16957335.834843285
209 8 -28230707.935121261
210 8 -22130681.458058648
211 8 279102.738267760
212 8 -1292906.669007267
213 8 -5808361.384417220
214 8 -2178263.708813121
215 8 -5841572.866185211
216 8 -13050166.502612168
217 8 12423181.029922798
218 8 -16251474.988374598
219 8 -17313141.211848423
220 8 -30885509.075712938
221 8 -56239225.989172354
222 8 -33658996.759657644
223 8 -11635387.965678465
224 8 -22260720.709364638
225 8 -24226527.379689742
226 8 -20772346.676306937
227 8 -34072956.594229341
228 8 -21922212.707768500
229 8 10000080.977312773
230 8 -13926406.261687391
231 8 -17918789.464092113
232 8 -2741879.959000337
233 8 -6552350.037035413
234 8 -13470075.699377457
235 8 1856563.335240374
236 8 -2711223.601167960
237 8 -7036939.940817521
238 8 1083162.797895700
239 8 -2200073.843320557
240 8 -7039442.765393896
241 8 4742817.837019704
242 8 -7345084.917854335
243 8 -13964456.497004317
244 8 -19251161.858584188
245 8 -31032345.894335795
246 8 -17162671.713782147
247 8 559999.948955004
248 8 -2144866.118842013
249 8 -7824085.085486143
250 8 -477841.182643740
251 8 -3737339.540237206
252 8 -10497968.340524709
253 8 418119.539697329
254 8 -1217189.460631984
255 8 -5197711.266688270
256 8 -26150988.917056449
257 8 -50880879.309394315
258 8 -36999287.232182786
259 8 -440530.102107553
260 8 -1276559.733542360
261 8 -5174406.832152713
262 8 17506615.795618150
263 8 -22371003.696194347
264 8 -15346387.592793774
265 8 -16228813.067300145
266 8 -47758966.803633966
267 8 -44588859.682384357
268 8 4348429.507957361
269 8 -9110287.009652313
270 8 -17391972.483371660
271 8 -882327.488647836
272 8 -2075260.511560037
273 8 -6777572.118734185
274 8 -2229285.017429131
275 8 -6889605.875215366
276 8 -15505983.778793307
277 8 1037768.989843710
278 8 -2225267.058377116
279 8 -7636225.199398422
280 8 -1519135.548177549
281 8 -3485085.817421563
282 8 -9175115.425163629
283 8 -39368491.131141677
284 8 -69452629.107700631
285 8 -23753301.475331694
286 8 11536941.280532943
287 8 -14571367.904989429
288 8 -14320510.995239615
289 8 -10875601.195772555
290 8 -20963160.378695540
291 8 -24140801.916649796
292 8 1592938.396378890
293 8 -2669412.780934321
294 8 -8467800.458889961
295 8 -32363308.710247960
296 8 -57516076.306286559
297 8 -40667725.453957751
298 8 -5884030.458612963
299 8 -8746532.214566194
300 8 -10894426.910266194
301 8 88198252.523898944
302 8 -142322877.919221222
303 8 -46231963.357569292
304 8 36608697.738988258
305 8 -71805552.179459259
306 8 -54226317.458846591
307 8 -8626883.576125046
308 8 -15950588.149958873
309 8 -17942306.502462972
310 8 26113360.369827215
311 8 -95754670.323807254
312 8 -79183838.017902255
313 8 1270206.254736622
314 8 -2193529.363588116
315 8 -6899194.020023551
316 8 -33898638.391655102
317 8 -79727035.516967982
318 8 -56231366.530063286
319 8 -96449417.043703526
320 8 -221721095.587929964
321 8 -57287499.537756495
322 8 -13968994.397028811
323 8 -24699599.820759572
324 8 -23722261.938387521
325 8 497258.845671979
326 8 -1655498.451789544
327 8 -6235993.682144242
328 8 -377589.490054423
329 8 -10820164.222726457
330 8 -17157888.011399545
331 8 3564094.633204326
332 8 -4362401.638147864
333 8 -12378327.617888765
334 8 -2839382.586429396
335 8 -8024973.166054780
336 8 -15683462.341314495
337 8 57878378.469335899
338 8 -124976335.772869274
339 8 -73960130.812852457
340 8 10568318.938344147
341 8 -13701367.867083127
342 8 -15862028.757673753
343 8 -37264278.230495669
344 8 -87687688.082659185
345 8 -53740796.999130905
346 8 1774.932393586
347 8 -2318.091736631
348 8 -18900.659216325
349 8 2592.305630868
350 8 -182.619449559
351 8 -20904.635028359
352 8 6325.180967033
353 8 3287.962027860
354 8 -37704.489752747
355 8 126.488983083
356 8 -169.808299465
357 8 -1430.959674148
358 8 988.585331162
359 8 -560.198520363
360 8 -11663.130610945
361 8 16885.322223340
362 8 2366.235668638
363 8 -100800.419265647
364 8 1942491.385978445
365 8 -3024785.080498746
366 8 -8422831.930601433
367 8 2208.676313767
368 8 -1005.244609640
369 8 -22019.925352165
370 8 23096.093934118
371 8 10680.591497870
372 8 -121806.885226750
373 8 7773.809703529
374 8 192.727770175
375 8 -55626.538834501
376 8 1663.671428247
377 8 -95.404283556
378 8 -14226.722158359
379 8 32875.862860705
380 8 20597.372836854
381 8 -131761.753034039
382 8 885.745557382
383 8 -124.510984829
384 8 -8435.276092561
385 8 3780.432736392
386 8 1673.297661888
387 8 -24534.424097448
388 8 2349268.751187615
389 8 -3530901.496926150
390 8 -8851488.946558006
391 8 43091.532987712
392 8 16328.296075843
393 8 -203374.372606293
394 8 6769.431915476
395 8 485.325621490
396 8 -44669.984656177
397 8 53905.530114733
398 8 28287.524091758
399 8 -250086.012365707
427 8 2224.311677092
428 8 -455.291509071
429 8 -23120.701893997
430 8 628.739865578
431 8 533.376184678
432 8 -3204.663033526
433 8 12459.238030035
434 8 7504.967171434
435 8 -67322.162322836
445 8 406558.402041044
446 8 -1619880.824129589
447 8 -6636455.349108305
448 8 739.963554031
449 8 -351.014410248
450 8 -7818.827299968
451 8 -637539.341070583
452 8 -1654524.486597411
453 8 -5827540.656734230
454 8 -137595.867752754
455 8 -1773642.591096014
456 8 -7018826.421465722
466 8 2791.045225020
467 8 -3914.801290685
468 8 -33992.292225226
481 8 45898.169826845
482 8 43401.171464702
483 8 -201684.338230772
505 8 868.570567188
506 8 -1346.396915473
507 8 -12231.669202125
508 8 49168.823039818
509 8 42014.445073825
510 8 -185478.436156311
517 8 173.725476705
518 8 -276.078934835
519 8 -2640.179675487
526 8 2103.577020131
527 8 2918.495167389
528 8 -30822.639778949
544 8 3295.455620482
545 8 -4803.665573065
546 8 -43312.866580750
562 8 7761813.958883644
563 8 -11220620.633894447
564 8 -16721220.608043544
565 8 851.601201744
566 8 1011.528985978
567 8 -4818.297955491
568 8 2741.619530211
569 8 3215.583066686
570 8 -19420.231020105
574 8 890.108766428
575 8 -1601.121584979
576 8 -15807.103319752
583 8 182.116811503
584 8 -2887.343423001
585 8 -20484.324283104
589 8 732.437728565
590 8 837.583694265
591 8 -3798.484183871
613 8 69301.601176727
614 8 94768.361352325
615 8 -236267.222867520
619 8 19248.049139927
620 8 19239.964741779
621 8 -76768.663731842
628 8 1767.781554783
629 8 -6286.943898152
630 8 -48316.428442818
634 8 64682.463104278
635 8 80169.883104718
636 8 -269996.954980982
643 8 237.507643486
644 8 -8208.319201586
645 8 -62403.677701558
664 8 25386.561369470
665 8 22103.941611324
666 8 -100646.051675014
667 8 60.178691206
668 8 -660.488400249
669 8 -3853.605174266
673 8 60136.727170741
674 8 73446.181579105
675 8 -207670.815350207
682 8 161.768020586
683 8 -1177.530418831
684 8 -8567.830346309
688 8 61160.794965319
689 8 59782.950690699
690 8 -239027.102068841
691 8 -78.467971431
692 8 -132.230360991
693 8 -2139.098644542
697 8 30078.869165392
698 8 12279.674110022
699 8 -155632.328841359
703 8 1895.727372463
704 8 -1241.770966326
705 8 -26656.178864037
715 8 320.125279680
716 8 -734.038339596
717 8 -5996.293513295
718 8 -82.785260019
719 8 -538.080834656
720 8 -3754.376691713
721 8 39830.422275767
722 8 29137.457632638
723 8 -186279.590505252
724 8 88826.157659475
725 8 90832.986474530
726 8 -336152.265092890
733 8 3111.499371689
734 8 -837.751820348
735 8 -50895.851859258
736 8 5372.733804724
737 8 6664.465487933
738 8 -51495.276806314
739 8 199.935520223
740 8 -5671.270678906
741 8 -31739.936527387
742 8 42179.045147521
743 8 35962.131490092
744 8 -189260.675636682
763 8 -26.308307141
764 8 -2920.449101800
765 8 -34421.630115536
766 8 79577.567158724
767 8 83900.455489600
768 8 -276892.117523663
784 8 1601.970215968
785 8 -518.187528394
786 8 -21908.936494026
796 8 127.975605347
797 8 -2028.651799837
798 8 -22218.926868554
802 8 -72.444110213
803 8 -629.331563413
804 8 -6772.055820814
811 8 -105.406641912
812 8 -955.160737754
813 8 -21613.046982232
823 8 -679.068473444
824 8 -3430.945241215
825 8 -17091.165133261
832 8 -1317.601954147
833 8 1031.644571897
834 8 -19567.850054164
841 8 -3339.467373263
842 8 3194.987608956
843 8 -11321.412946165
844 8 -367018.562642457
845 8 -1143520.893938335
846 8 -4609199.188920644
856 8 -832.616533081
857 8 -649.164536244
858 8 -16075.610904333
874 8 -138.686791789
875 8 -75.049472612
876 8 -2127.262540464
877 8 -468.401947853
878 8 -197.738723782
879 8 -4819.863020964
880 8 -162.403254888
881 8 -1326.650648833
882 8 -9464.208241282
883 8 26665.889726419
884 8 16185.374813855
885 8 -141932.229497398
898 8 -12213.281659989
899 8 7897.120720472
900 8 -48819.420986746
949 8 -997.663873664
950 8 -2014.511202546
951 8 -12099.736966931
952 8 -22271.192210882
953 8 -18486.375605724
954 8 -192532.562723265
958 8 -66481.620517278
959 8 76104.910651014
960 8 -213101.166408159
961 8 -1079.043424644
962 8 -542.840741610
963 8 -8287.431449775
964 8 -24065.586633746
965 8 25960.673748841
966 8 -88805.823270228
967 8 -1180.335138151
968 8 -830.661609938
969 8 -10355.748124848
970 8 -24217.465466940
971 8 78.129974281
972 8 -148990.020992523
973 8 -21183.958064131
974 8 -2955.285626261
975 8 -147514.447223667
976 8 -14122.958293377
977 8 -663.514909930
978 8 -115204.670942559
979 8 -23421.439986896
980 8 27365.751569220
981 8 -96692.342857927
982 8 -1396.275268625
983 8 -1223.718177364
984 8 -15081.319024318
988 8 -95250.090537395
989 8 114796.515124417
990 8 -301088.342800638
994 8 -423.887193992
995 8 -1880.748469413
996 8 -13315.708491084
997 8 -570.353033989
998 8 -1357.929877744
999 8 -10096.905899716
1000 8 -476.603240968
1001 8 -405.149851120
1002 8 -4085.852745358
1003 8 -29352.335593882
1004 8 -20276.793742703
1005 8 -237449.994075882
1006 8 -8721.727307785
1007 8 -17353.049790612
1008 8 -113276.211540442
1018 8 -7443.334461416
1019 8 -13506.995762779
1020 8 -84946.368032888
1021 8 -11029.039017912
1022 8 -13075.284915548
1023 8 -114410.245889299
1024 8 -27288.076594064
1025 8 32011.253586951
1026 8 -106828.317231852
1039 8 -42339.169840869
1040 8 54106.414736013
1041 8 -123971.085652084
1048 8 -19184.931287759
1049 8 -5089.067432439
1050 8 -151795.432212836
1060 8 -7721.382599992
1061 8 9259.613935121
1062 8 -53449.386167180
1063 8 -15254.430182269
1064 8 -4448.796194544
1065 8 -124551.081473636
1069 8 -13250.801630321
1070 8 2736.758493869
1071 8 -67042.544187961
1075 8 -3865.258212150
1076 8 815.931397015
1077 8 -18945.297240090
1078 8 -2350.654560715
1079 8 74.377388559
1080 8 -14194.546963625
1084 8 -3314.882607457
1085 8 232.958230242
1086 8 -24486.702291839
1096 8 -2287.461919687
1097 8 -3188.963426737
1098 8 -72760.466866825
1099 8 -1177.854571745
1100 8 -767.164155864
1101 8 -8423.672176547
1102 8 11020.911599941
1103 8 13232.971182412
1104 8 -69227.716870793
1426 8 -1086.726359816
1427 8 -2548.707543361
1428 8 -22732.142682196
1 9 37321.177585360
2 9 -8228.653149569
3 9 -1632007.853714964
4 9 -934.586940389
5 9 -109894.064894521
6 9 520.737422972
7 9 -19744122.697414037
8 9 130773671.161371589
9 9 369383856.407728791
10 9 4670262762.620582581
11 9 -1621453707.228765965
12 9 803377186.153129220
13 9 257530.250149268
14 9 -103878.365056122
15 9 -4432575.860725408
16 9 27617.883846125
17 9 -242893.008737990
18 9 7289.966020395
67 9 -1290.310423850
68 9 -96.117450381
69 9 -39.249816600
70 9 -42654.716562197
71 9 -4554.831985306
72 9 -4408.287685998
73 9 -7732.047560603
74 9 -1495.538197021
75 9 -2290.046858999
100 9 14394.225207398
101 9 -2434.745927839
102 9 715420.073537738
103 9 -123.972823827
104 9 -37995.341910761
105 9 116.385241724
106 9 2452702.033049091
107 9 -2408487.329153188
108 9 -7718692.697197815
109 9 2596665.130128192
110 9 -2400590.023735776
111 9 -9132203.037519343
112 9 7160417.867736503
113 9 -5193445.266040711
114 9 -25228930.382644918
115 9 2705784.918113067
116 9 -2827225.927540178
117 9 -7153992.615376241
118 9 368172.640918661
119 9 -723489.846450803
120 9 -5489062.503441956
121 9 7732345.977345409
122 9 -7172684.942582304
123 9 -22372157.018323701
124 9 23785029.198878631
125 9 -16858927.451126985
126 9 -72229555.098618835
127 9 285325.940052381
128 9 -742580.408036995
129 9 -6400999.196013951
130 9 790533.468873211
131 9 -887835.712825696
132 9 -8794871.890175831
133 9 3550769.359591139
134 9 -3436564.982227664
135 9 -10699195.458335826
136 9 6495401.047997494
137 9 -5832281.216440249
138 9 -19763970.495490965
139 9 -37692.447825482
140 9 -29593.813978603
141 9 -64749.517028152
142 9 456889.631887379
143 9 -761781.827869585
144 9 -6314681.463505669
145 9 28052583.993664496
146 9 -23185245.380787544
147 9 -79151123.338968053
148 9 7864132.494748556
149 9 -7169735.741719891
150 9 -23070941.047959600
151 9 17387901.356752135
152 9 -25421069.873924013
153 9 -30568209.723850027
154 9 2252602.323751534
155 9 -1793075.210623454
156 9 -10782681.431030266
157 9 -115146.469030361
158 9 -107961.407737211
159 9 -268539.259354306
160 9 81822188.552095681
161 9 -163440411.835984200
162 9 -122355941.194304481
163 9 3777802.545645026
164 9 -3723844.296875824
165 9 -10941046.046325255
166 9 17280552.672835544
167 9 -19742557.994593367
168 9 -40562969.191556737
172 9 14211908.277117569
173 9 -15066547.117528146
174 9 -35519203.788697310
175 9 -32840.096275957
176 9 -28600.829558481
177 9 -62099.082526279
178 9 292443.035936428
179 9 -678744.338710629
180 9 -4804284.901317887
181 9 50198665.683903463
182 9 -60382133.712558419
183 9 -115088211.571890384
184 9 -75283.337659250
185 9 -92018.707213273
186 9 -219206.559540214
187 9 328288.200276293
188 9 -785431.715505737
189 9 -6959430.450478640
190 9 -70670.999201684
191 9 -98390.121903481
192 9 -232114.890912981
193 9 7197809.559528208
194 9 -5174814.254897992
195 9 -25497037.492773667
196 9 42291724.598195843
197 9 -37747552.012102894
198 9 -113067013.902244091
199 9 -20267.323235643
200 9 -19154.171858813
201 9 -40149.911591841
202 9 1313762.796342123
203 9 -1266801.701941577
204 9 -6617303.950588603
205 9 1491714.674640241
206 9 -1435126.969760345
207 9 -6320109.999739669
208 9 30199552.355212677
209 9 -26488102.857516319
210 9 -82645328.519347399
211 9 1757497.290750463
212 9 -1645662.213279353
213 9 -7186492.819820104
214 9 10690021.456903359
215 9 -8974610.840044012
216 9 -32334840.921052251
217 9 20823332.368767727
218 9 -31117396.374829341
219 9 -36629574.226961158
220 9 53079437.031046607
221 9 -56637403.439778969
222 9 -130049959.500935212
223 9 29819870.699489832
224 9 -29680503.538387958
225 9 -76603393.996748552
226 9 32521876.027422380
227 9 -27375108.112672310
228 9 -90274576.124559879
229 9 20270779.301861189
230 9 -28953732.803499371
231 9 -37745611.482393339
232 9 11453931.507279726
233 9 -9609672.755773457
234 9 -34416132.367107540
235 9 3401544.681845273
236 9 -3700949.992681255
237 9 -8089647.856356094
238 9 3224234.269516930
239 9 -3270933.547413283
240 9 -9030436.904612824
241 9 12746337.006468538
242 9 -15566964.002699111
243 9 -27487390.500088889
244 9 26137326.139425024
245 9 -18851155.395651747
246 9 -78210097.123485550
247 9 3781346.140435140
248 9 -3477453.024924749
249 9 -12182682.048143102
250 9 7095814.005954820
251 9 -6250778.599385283
252 9 -21723833.684946198
253 9 1377913.104975066
254 9 -1388321.587497783
255 9 -5213646.073063845
256 9 54196013.476629682
257 9 -62047140.372874171
258 9 -127943800.514067128
259 9 1158812.346136062
260 9 -1032182.337040110
261 9 -8957029.002660258
262 9 21786141.418939963
263 9 -35428823.588829413
264 9 -33905731.102031589
265 9 59232849.916243166
266 9 -81100814.970363513
267 9 -124733874.488615856
268 9 17263803.503530059
269 9 -21261785.482446589
270 9 -37622865.352030560
271 9 2652718.263386209
272 9 -1857398.689147442
273 9 -13331707.045079784
274 9 13963425.475622691
275 9 -12200700.115494300
276 9 -40205233.623556271
277 9 3666110.133689057
278 9 -3577928.037353536
279 9 -10837276.834285505
280 9 5511226.985141592
281 9 -4000564.456352281
282 9 -20565683.197907563
283 9 48461088.157307208
284 9 -43045020.694937445
285 9 -129039114.554398492
286 9 16799656.441172659
287 9 -24884067.686714701
288 9 -28715990.484844558
289 9 29341014.934605196
290 9 -28957284.441084832
291 9 -75812964.446589842
292 9 4584376.536650113
293 9 -4586928.290748158
294 9 -12707793.933228096
295 9 63067791.937632903
296 9 -67348459.725349143
297 9 -154955750.173331976
298 9 9451885.252053190
299 9 -4762134.802901994
300 9 -36813357.599242531
301 9 101400260.494338870
302 9 -236340554.994292855
303 9 -125715560.865171313
304 9 78734169.257458016
305 9 -156114676.306301534
306 9 -118371894.607761025
307 9 20135437.476923637
308 9 -18427825.402364410
309 9 -54954065.431780227
310 9 107848709.616814375
311 9 -215693412.231429040
312 9 -167967380.500865459
313 9 3052879.745390157
314 9 -3140404.809289446
315 9 -8324061.132135827
316 9 83011254.818838641
317 9 -114055971.290374428
318 9 -176919457.541916430
319 9 126871532.809529662
320 9 -184200927.835766792
321 9 -262011180.041213512
322 9 30385674.789426863
323 9 -28770434.941180889
324 9 -80130899.513647512
325 9 2333712.464370142
326 9 -2256707.271186884
327 9 -7838739.920031122
328 9 16847334.318347819
329 9 -20535088.560379986
330 9 -36389549.168507010
331 9 9479288.275659058
332 9 -9551117.419945527
333 9 -25143586.884965345
334 9 14562803.803393904
335 9 -13371443.355987359
336 9 -40486163.363451734
337 9 112843164.751816675
338 9 -252384229.551395655
339 9 -151548053.343357652
340 9 18023236.139714763
341 9 -25994010.683682162
342 9 -32541544.714002460
343 9 81213394.543184772
344 9 -113796652.366088241
345 9 -169951473.636215478
346 9 -4517.291630404
347 9 -2459.397975994
348 9 -4915.566327055
349 9 -6268.688281772
350 9 -2902.684124331
351 9 -5616.089539360
352 9 -12225.184506221
353 9 -6233.106596301
354 9 -12209.129553667
355 9 -354.257910629
356 9 -169.223866034
357 9 -326.994060511
358 9 -3470.064249974
359 9 -1134.394226815
360 9 -2051.808854549
361 9 -28035.674099496
362 9 -19732.942228138
363 9 -41999.483942063
364 9 4778351.164072999
365 9 -5030638.406076601
366 9 -12208194.286861271
367 9 -6395.262683018
368 9 -2576.677865638
369 9 -4911.075740466
370 9 -36402.034498095
371 9 -24265.115946184
372 9 -51598.779250539
373 9 -16338.531660124
374 9 -8769.708913859
375 9 -17759.851830210
376 9 -4353.654634723
377 9 -1832.843662847
378 9 -3471.199750413
379 9 -33106.582893009
380 9 -39963.580728015
381 9 -86621.525155017
382 9 -2599.804121369
383 9 -976.259616900
384 9 -1802.140809424
385 9 -7962.665041165
386 9 -3780.074285765
387 9 -7278.770727387
388 9 5471030.195412548
389 9 -5966346.456968969
390 9 -13183275.646531576
391 9 -50782.820178926
392 9 -53777.971733970
393 9 -121582.725438743
394 9 -12945.964639694
395 9 -7715.338135755
396 9 -15635.172361092
397 9 -67936.154434126
398 9 -60281.899054447
399 9 -138346.978226800
427 9 -7133.114265156
428 9 -2456.139737307
429 9 -4535.926441037
430 9 -1101.440871334
431 9 -557.390112531
432 9 -1049.436902966
433 9 -21667.299716555
434 9 -12099.865904216
435 9 -24369.308700951
445 9 2525023.541695606
446 9 -2316630.604125117
447 9 -9095162.190535409
448 9 -2307.277867744
449 9 -853.209837687
450 9 -1575.849567885
451 9 1785074.764243927
452 9 -1387194.874186067
453 9 -10650039.067301095
454 9 2852013.801180627
455 9 -2362705.183520043
456 9 -11511301.634786479
466 9 -8526.563609452
467 9 -3681.549343014
468 9 -7249.867002848
481 9 -66417.413827906
482 9 -39363.527159874
483 9 -84740.842578617
505 9 -3208.408084985
506 9 -1092.829322751
507 9 -2013.290731750
508 9 -52958.047465291
509 9 -49827.606625030
510 9 -108530.953991241
517 9 -711.017435677
518 9 -213.121345940
519 9 -375.675653935
526 9 -11357.148393925
527 9 -2068.279121267
528 9 -3035.895940906
544 9 -11103.834203887
545 9 -4253.062200238
546 9 -8315.528616028
562 9 17657086.054138269
563 9 -23889195.834422998
564 9 -34623175.839000091
565 9 -1772.689591800
566 9 -681.686258798
567 9 -1209.611944227
568 9 -7176.481883656
569 9 -2297.754384890
570 9 -3992.911729553
574 9 -4330.417626059
575 9 -1070.522497294
576 9 -1825.432378169
583 9 -5251.593280484
584 9 -39.978929510
585 9 577.138751864
589 9 -1380.763053726
590 9 -586.238446293
591 9 -1059.628289857
613 9 -79639.866624770
614 9 -49465.026941538
615 9 -103104.770661460
619 9 -25377.782648647
620 9 -16515.975404878
621 9 -33116.702773050
628 9 -12415.239792166
629 9 -2076.654875311
630 9 -3341.565514272
634 9 -93778.995775391
635 9 -47747.733188579
636 9 -103069.782817693
643 9 -16192.960814437
644 9 169.277390442
645 9 2006.096976385
664 9 -31228.312814751
665 9 -23868.747356149
666 9 -49412.656735200
667 9 -906.108630956
668 9 -28.264171095
669 9 60.609341097
673 9 -67825.344993959
674 9 -47205.590022717
675 9 -99396.973855367
682 9 -2218.002373408
683 9 -140.011308250
684 9 -14.672368808
688 9 -75190.813273023
689 9 -53806.708590554
690 9 -118323.147476631
691 9 -659.100687552
692 9 85.586613890
693 9 285.782964052
697 9 -44390.405657386
698 9 -33089.815203753
699 9 -72328.118200746
703 9 -8070.075334957
704 9 -2154.066190238
705 9 -3785.446571836
715 9 -1566.617295713
716 9 -390.930534022
717 9 -658.759131532
718 9 -959.931671865
719 9 168.921582216
720 9 511.705436831
721 9 -58163.442894597
722 9 -37887.578436341
723 9 -82468.604642831
724 9 -103819.883284915
725 9 -77221.310574935
726 9 -177382.584996607
733 9 -16352.431932710
734 9 -3420.212859920
735 9 -5787.021505920
736 9 -19026.792942392
737 9 -4756.034977264
738 9 -8089.283253714
739 9 -7227.331168079
740 9 261.859976085
741 9 1442.955749767
742 9 -60914.143006205
743 9 -37921.322989697
744 9 -81821.902103010
763 9 -10092.524855651
764 9 74.708023740
765 9 1393.871241837
766 9 -81977.980578358
767 9 -72569.209315718
768 9 -161683.398439326
784 9 -6916.354055188
785 9 -1763.297245652
786 9 -3020.574975245
796 9 -6439.713961242
797 9 -102.536257702
798 9 597.271070589
802 9 -1966.913945706
803 9 108.494180387
804 9 514.942597635
811 9 -6880.089285678
812 9 26.378119324
813 9 966.919865072
823 9 -3508.386157419
824 9 1849.567547350
825 9 4623.078358766
832 9 -7043.714618879
833 9 836.526303616
834 9 2870.037307438
841 9 -3884.815512222
842 9 2368.182447719
843 9 5979.794821813
844 9 794313.859093336
845 9 -901001.889287222
846 9 -8058218.003456887
856 9 -5101.430684023
857 9 825.809153268
858 9 2549.134867104
874 9 -677.777264217
875 9 139.038424773
876 9 409.552794442
877 9 -1467.337235750
878 9 528.887138154
879 9 1398.243892475
880 9 -2440.784580771
881 9 344.341596138
882 9 1101.939432876
883 9 -44817.057777782
884 9 -25961.494386505
885 9 -55139.402293279
898 9 -15321.770427464
899 9 11480.661648571
900 9 28157.400860209
949 9 -2551.731670445
950 9 2279.313360355
951 9 5480.830955810
952 9 -43597.386909313
953 9 38454.214288536
954 9 91787.903016991
958 9 -74224.726368956
959 9 39538.881635167
960 9 98865.488824362
961 9 -2182.739077281
962 9 1603.402334947
963 9 3919.005513565
964 9 -32093.324946115
965 9 14206.066424666
966 9 36739.461711025
967 9 -2740.353148744
968 9 1755.613518348
969 9 4335.222970128
970 9 -40882.980143839
971 9 30213.601812702
972 9 72893.224916993
973 9 -40775.686650523
974 9 26320.302957431
975 9 63725.885308721
976 9 -35254.666926036
977 9 14696.309215206
978 9 36746.496765308
979 9 -35982.663951569
980 9 12523.068512738
981 9 33329.449313987
982 9 -4184.369352169
983 9 1916.742862100
984 9 4885.257977161
988 9 -104972.269493684
989 9 53700.440640869
990 9 133141.740516015
994 9 -3393.103641326
995 9 790.440844454
996 9 2227.515104011
997 9 -2560.179047102
998 9 984.517773036
999 9 2561.693499322
1000 9 -1003.009250610
1001 9 813.661935320
1002 9 1973.138168822
1003 9 -52694.266579268
1004 9 50737.207719023
1005 9 120922.312637073
1006 9 -24463.235858932
1007 9 17770.528776535
1008 9 42800.543387041
1018 9 -17343.683033053
1019 9 16816.995173301
1020 9 40172.912671956
1021 9 -27111.022299438
1022 9 18818.629743738
1023 9 45460.666480885
1024 9 -39494.278002153
1025 9 14616.165717358
1026 9 38549.104440343
1039 9 -43497.130574581
1040 9 22301.817104462
1041 9 57301.814143472
1048 9 -42446.545116390
1049 9 23420.313936479
1050 9 56924.508397132
1060 9 -20354.432486514
1061 9 4133.681617368
1062 9 12141.127026073
1063 9 -35296.388123473
1064 9 18465.788448122
1065 9 45278.373897872
1069 9 -18342.324828119
1070 9 16989.578693776
1071 9 40895.689930648
1075 9 -5105.406195514
1076 9 5200.179393016
1077 9 12465.066518571
1078 9 -4112.941218114
1079 9 2841.673040941
1080 9 6991.573409313
1084 9 -7741.561114606
1085 9 3357.873232755
1086 9 8629.832816208
1096 9 -22834.270515721
1097 9 2131.692161259
