1520503193.096154 -0.227324843 -0.863923073 -0.035845660 0.019170357 -0.032918636 -0.017621893 -0.999118805
1520503193.446166 -0.187901318 -0.859157801 -0.044911139 0.017090557 -0.031002993 -0.022171816 -0.999127209
1520503193.546179 -0.167016804 -0.858342648 -0.046399821 0.023475304 -0.030499559 -0.020983564 -0.999038756
1520503193.646182 -0.141382769 -0.855874240 -0.047270369 0.025067350 -0.031062230 -0.019170139 -0.999019146
1520503193.746185 -0.112001821 -0.850907624 -0.048799168 0.019883579 -0.027949447 -0.020447655 -0.999202371
1520503193.846188 -0.079639174 -0.843453765 -0.049647130 0.010337328 -0.027030155 -0.018016677 -0.999418795
1520503193.946197 -0.049031004 -0.835517645 -0.052800406 0.010736911 -0.022899158 -0.022218302 -0.999433219
1520503194.046199 -0.018111192 -0.823407888 -0.055581629 0.008081339 -0.027462509 -0.023125093 -0.999322653
1520503194.146203 0.015726909 -0.804221809 -0.060040846 0.001419109 -0.031357925 -0.026421774 -0.999157965
1520503194.246206 0.052453145 -0.779840112 -0.063945450 -0.001888169 -0.033524979 -0.021766461 -0.999199092
1520503194.346209 0.094296694 -0.750689030 -0.067338288 -0.004746564 -0.030597197 -0.021122934 -0.999297380
1520503194.446223 0.141247228 -0.718692601 -0.067785122 -0.005322141 -0.028429998 -0.021336336 -0.999353945
1520503194.546227 0.192430973 -0.687877655 -0.062892132 -0.004783533 -0.024522854 -0.016610792 -0.999549866
1520503194.646230 0.247309670 -0.659757853 -0.055546794 -0.008091650 -0.019016271 -0.011693799 -0.999718130
1520503194.746233 0.304320395 -0.636905670 -0.048894238 -0.012798540 -0.024973234 -0.012100703 -0.999532938
1520503194.846263 0.365238667 -0.617053628 -0.049184706 -0.018532140 -0.028516861 -0.009357437 -0.999377787
1520503194.996238 0.470967680 -0.592392266 -0.063781053 -0.024948450 -0.027870370 -0.023562472 -0.999022365
1520503195.096241 0.549902737 -0.578740835 -0.068698727 -0.025244920 -0.019781116 -0.027533341 -0.999106288
1520503195.196275 0.629502952 -0.565594494 -0.064645737 -0.026213167 -0.009468969 -0.013224516 -0.999524117
1520503195.296278 0.705211699 -0.552312374 -0.057523020 -0.027310809 -0.005481594 -0.017581856 -0.999457419
1520503195.396281 0.771986604 -0.534483194 -0.054067515 -0.024842104 -0.006929861 -0.018132789 -0.999502957
1520503195.496284 0.831084371 -0.511743069 -0.056595657 -0.025496604 -0.004465776 -0.020673579 -0.999451101
1520503195.596316 0.885245681 -0.481590033 -0.064050227 -0.022996504 -0.010526457 -0.013359766 -0.999590874
1520503195.696320 0.939456940 -0.446235418 -0.072623290 -0.023796096 -0.011158370 -0.006011565 -0.999636531
1520503195.796323 0.995108902 -0.411636651 -0.074540704 -0.035421349 -0.004247020 -0.003533648 -0.999357224
1520503195.896326 1.051287413 -0.385880291 -0.066083744 -0.055645827 0.001473376 -0.004227202 -0.998440564
1520503195.996348 1.103618622 -0.367775291 -0.056309454 -0.064148806 -0.006537777 0.002168442 -0.997916579
1520503196.096351 1.146561503 -0.357416987 -0.048917510 -0.065857805 -0.005924413 0.002941700 -0.997807086
1520503196.246358 1.193186998 -0.351902723 -0.044032559 -0.051857222 0.000252203 0.019999456 -0.998454213
1520503196.396340 1.213033795 -0.360837936 -0.048733883 -0.022111898 0.001576926 0.010917149 -0.999694705
1520503196.496343 1.208176374 -0.371614903 -0.058197293 0.008487634 0.001577780 -0.000094916 -0.999962807
1520503196.596346 1.187817693 -0.383168280 -0.065031655 0.034110386 -0.013838426 -0.012602681 -0.999242783
1520503196.746351 1.130665898 -0.403355092 -0.064223848 0.049974144 -0.021151997 -0.017263783 -0.998377323
1520503196.896376 1.038435102 -0.424593359 -0.065403789 0.082739927 -0.001507588 0.001601814 -0.996568799
1520503197.046381 0.913920581 -0.453785658 -0.071035728 0.112013787 0.005810041 0.005240596 -0.993675888
1520503197.196386 0.781006932 -0.481848150 -0.065849766 0.119472101 -0.012619638 -0.007636205 -0.992727995
1520503197.396343 0.612430215 -0.503986776 -0.051863208 0.149501950 -0.006361283 0.002421420 -0.988738000
1520503197.546348 0.481539458 -0.504580736 -0.065670088 0.181768581 0.001086662 0.009696557 -0.983292937
1520503197.696309 0.337747961 -0.498158514 -0.087654687 0.218738943 0.004446326 0.002715902 -0.975769520
1520503197.846314 0.185115710 -0.490100890 -0.086862221 0.255980879 0.001750141 -0.005371741 -0.966665328
1520503197.946317 0.087705195 -0.487170219 -0.068078727 0.272532701 -0.002004776 0.005667134 -0.962127745
1520503198.146319 -0.095750041 -0.474655420 -0.049893826 0.273907095 -0.015330716 0.038713697 -0.960854411
1520503198.296323 -0.226919800 -0.470962048 -0.053794913 0.263661385 -0.005158372 0.048716143 -0.963370562
1520503198.496242 -0.385539979 -0.473234057 -0.041982699 0.225719228 -0.001861854 0.038013794 -0.973448694
1520503198.646246 -0.498194575 -0.473158419 -0.044921767 0.218025491 -0.001246760 0.022814114 -0.975675583
1520503198.796251 -0.620023489 -0.464352340 -0.065094993 0.208333388 0.002975109 0.019624792 -0.977856457
1520503198.946282 -0.755803049 -0.443385959 -0.081283741 0.196643770 -0.003415676 0.029253677 -0.980032623
1520503199.096285 -0.896906495 -0.434954643 -0.072536096 0.218288913 -0.019997386 0.028512439 -0.975262582
1520503199.246291 -1.031756163 -0.435734063 -0.052105747 0.235373244 -0.020138670 0.033587109 -0.971115768
1520503199.396335 -1.161961317 -0.434539735 -0.050578892 0.231499076 -0.026097581 0.052360669 -0.971074402
1520503199.496338 -1.243338943 -0.440135837 -0.051349856 0.223329723 -0.018921316 0.058127619 -0.972824275
1520503199.696293 -1.388131499 -0.452464074 -0.044984408 0.197817475 -0.019934608 0.048529975 -0.978833914
1520503199.896299 -1.512470126 -0.442573786 -0.037556790 0.185470775 -0.022021485 0.062516756 -0.980411828
1520503200.096294 -1.625530362 -0.421373725 -0.060110036 0.178034425 -0.027070886 0.056158386 -0.982047439
1520503200.296300 -1.711509228 -0.419902146 -0.064758129 0.187387824 -0.024741307 0.047372550 -0.980831087
1520503200.496350 -1.759517431 -0.465574682 -0.053953238 0.176699728 -0.032263730 0.052599445 -0.982328713
1520503200.646355 -1.779065132 -0.530242920 -0.056204006 0.163561255 -0.031327497 0.040646572 -0.985197544
1520503200.946374 -1.790617466 -0.715760350 -0.080381915 0.156438157 -0.007177235 -0.004331208 -0.987652183
1520503201.146380 -1.775276184 -0.854689240 -0.092313409 0.163314506 -0.009129626 -0.017576428 -0.986375272
1520503201.346484 -1.738436460 -0.991248727 -0.102407128 0.157790318 -0.015705496 -0.018126557 -0.987181306
1520503201.446487 -1.714163661 -1.057036042 -0.105230913 0.162563726 -0.014483931 -0.009180428 -0.986549079
1520503201.646493 -1.670125008 -1.188973904 -0.095304497 0.158808514 -0.019051109 -0.018069617 -0.986960173
1520503201.846534 -1.639620304 -1.314252973 -0.088684358 0.122060977 -0.007004838 -0.000466145 -0.992497802
1520503202.046541 -1.616503119 -1.426234603 -0.098773919 0.066819161 -0.009057998 0.000673384 -0.997723758
1520503202.246542 -1.578002453 -1.519801855 -0.111790605 0.007754444 -0.007096808 -0.023932541 -0.999658346
1520503202.446547 -1.521275759 -1.581065893 -0.109277047 -0.010771816 -0.000002997 -0.025051353 -0.999628186
1520503202.646591 -1.447503209 -1.613494515 -0.110052653 -0.020743381 -0.012422322 -0.031480078 -0.999211967
1520503202.846598 -1.372043967 -1.615425110 -0.101032928 -0.015737940 -0.013673133 -0.007068319 -0.999757707
1520503203.046635 -1.308999181 -1.561236620 -0.101490684 -0.007725925 -0.017612066 0.000785646 -0.999814808
1520503203.246641 -1.245921016 -1.443553686 -0.111579925 0.004021354 -0.015951041 0.005120846 -0.999851584
1520503203.346644 -1.209581614 -1.370603800 -0.104748979 -0.003870351 -0.007964538 0.010011742 -0.999910712
1520503203.696600 -1.060512304 -1.111010194 -0.056012452 -0.050684039 -0.005353768 0.019855609 -0.998503029
1520503203.896544 -0.981248856 -0.954460680 -0.070395678 -0.044492386 -0.002494677 0.030028341 -0.998555243
1520503204.296467 -0.853144765 -0.643991649 -0.057192929 0.004755162 0.007945367 0.026740123 -0.999599516
1520503204.496472 -0.802373469 -0.477044702 -0.081325144 0.020534521 0.014263929 0.026830802 -0.999327302
1520503204.696460 -0.753188670 -0.304378331 -0.073452517 0.005691327 0.018712418 0.034843039 -0.999201357
1520503204.896467 -0.693277001 -0.162495553 -0.042648569 -0.006280823 0.012616224 0.049636923 -0.998667896
1520503205.096548 -0.632392049 -0.034012266 -0.048427723 0.016068485 0.016001929 0.065417156 -0.997600317
1520503205.296555 -0.558938086 0.076091126 -0.067194179 0.036836449 0.021477109 0.059856154 -0.997295916
1520503205.496741 -0.486296475 0.135360196 -0.065551013 0.041526519 0.017186059 0.060161989 -0.997176409
1520503205.596744 -0.454094321 0.137545526 -0.064362094 0.054351427 0.019218873 0.060044687 -0.996529579
1520503205.847033 -0.384106487 0.067907140 -0.060531847 0.043285001 0.008652607 0.059314460 -0.997262955
1520503206.097041 -0.310639024 -0.067626372 -0.053520203 0.019750532 0.013453552 0.057666861 -0.998049796
1520503206.346761 -0.245279863 -0.219947845 -0.050721355 0.015648022 0.011934791 0.043670155 -0.998852134
1520503206.546767 -0.186661184 -0.365245759 -0.055507720 0.017148959 0.016822239 0.051062882 -0.998406529
1520503206.796571 -0.109576717 -0.576658487 -0.073248059 0.031101495 0.018098138 0.032878682 -0.998811364
1520503206.996578 -0.068631046 -0.742920220 -0.075031593 0.022361912 0.016079105 0.028305737 -0.999219775
1520503207.246501 -0.048474196 -0.947238922 -0.073669896 -0.024591031 0.032501403 0.053191628 -0.997752309
1520503207.496542 -0.060092513 -1.144353747 -0.065019444 -0.025439020 0.033488642 0.008847366 -0.999076188
1520503207.696548 -0.062370848 -1.264632821 -0.069873333 -0.026391642 0.009234827 0.008046689 -0.999576628
1520503207.796551 -0.058040917 -1.320174217 -0.070577785 -0.016721172 0.011762043 0.005032193 -0.999778390
1520503208.096668 -0.011272173 -1.479241252 -0.076788157 -0.027312743 -0.010533772 0.004160406 -0.999562800
1520503208.346735 0.036436792 -1.510696173 -0.066758528 -0.031215884 0.002240261 0.007879001 -0.999479115
1520503208.646744 0.162345782 -1.428525805 -0.085000113 -0.055726133 0.014122345 0.011617643 -0.998278618
1520503208.896788 0.305453002 -1.338379502 -0.064674504 -0.082802430 0.015061053 0.015409449 -0.996333063
1520503209.146774 0.458918661 -1.217040062 -0.080967128 -0.097163752 0.011641331 0.020343170 -0.994992375
1520503209.396781 0.607342541 -1.070003271 -0.062012687 -0.086834833 0.026440162 0.025994338 -0.995532453
1520503209.646756 0.702429473 -0.906671166 -0.058095098 -0.047255322 0.030895306 0.025167024 -0.998087764
1520503209.896708 0.772616088 -0.707345605 -0.083918437 -0.051389497 0.042808529 0.018095663 -0.997596741
1520503210.146715 0.820898592 -0.524898052 -0.046455842 -0.056191109 0.037926544 0.038873408 -0.996941864
1520503210.246719 0.826053500 -0.451531470 -0.045231938 -0.048283182 0.036519889 0.044439550 -0.997176051
1520503210.546698 0.797583461 -0.214865834 -0.068980396 0.017863231 0.014496769 0.052703578 -0.998345196
1520503210.796722 0.698128045 -0.063211322 -0.062625557 0.104868934 0.012747162 0.039462749 -0.993620992
1520503211.096731 0.531749427 0.079312250 -0.087437563 0.098653302 0.017332181 0.044230998 -0.993987262
1520503211.396919 0.346589357 0.144801766 -0.064898223 0.029006766 0.011341793 0.032492980 -0.998986602
1520503211.647411 0.222330004 0.102654375 -0.060440682 0.030113604 0.017229108 0.049533315 -0.998169720
1520503211.897419 0.126440227 -0.007539190 -0.070610754 0.004206292 0.006862028 0.030659905 -0.999497473
1520503212.147234 0.030010182 -0.140878648 -0.066783443 -0.022486983 0.011478245 0.037040569 -0.998994827
1520503212.396930 -0.093938686 -0.290995240 -0.069011234 -0.049769927 -0.004917763 0.040606260 -0.997922838
1520503212.696939 -0.226644278 -0.487540424 -0.061078914 -0.034437235 0.002834016 0.041794028 -0.998528600
1520503212.846731 -0.268222541 -0.600252092 -0.061800521 -0.013698829 0.007573257 0.051811859 -0.998534203
1520503213.096739 -0.318923205 -0.797236502 -0.073050067 -0.003910672 -0.006915852 0.031607628 -0.999468803
1520503213.346674 -0.374668449 -0.964512825 -0.074112564 -0.010251215 0.011556412 0.037775736 -0.999166846
1520503213.646746 -0.463146180 -1.148440123 -0.080230370 -0.037276585 0.011895672 0.030992741 -0.998753428
1520503213.896754 -0.541864157 -1.271566510 -0.077237748 -0.022350051 0.008482117 0.029924547 -0.999266326
1520503214.146822 -0.616019726 -1.365701437 -0.089715764 0.012128784 -0.006053094 0.021284826 -0.999681592
1520503214.396871 -0.729714155 -1.441884875 -0.090509564 0.055302668 -0.004924753 0.014701135 -0.998349249
1520503214.646879 -0.899167180 -1.463090420 -0.086435392 0.101493888 -0.000579910 0.026354576 -0.994486868
1520503214.896914 -1.078216434 -1.424908280 -0.101873398 0.118627012 -0.023712037 0.003532478 -0.992649496
1520503215.196923 -1.276350260 -1.244070292 -0.073437333 0.149369329 0.006920605 0.005488148 -0.988742054
1520503215.296930 -1.343649864 -1.161790729 -0.003572516 0.160348326 -0.001807661 0.034932405 -0.986440480
1520503215.546938 -1.475411892 -0.998299658 0.250384629 0.172543675 -0.018071894 0.153670982 -0.972773015
1520503215.796811 -1.553692341 -0.863743544 0.449662745 0.134515077 -0.024244664 0.215988994 -0.966781616
1520503216.046637 -1.593052268 -0.735006213 0.593325436 0.094821684 -0.033309333 0.249989927 -0.963018417
1520503216.296645 -1.576121807 -0.582605660 0.640741944 0.057089001 -0.021174610 0.245525703 -0.967475951
1520503216.546545 -1.521071196 -0.404428095 0.507422090 0.037875790 -0.009533884 0.210908562 -0.976725221
1520503216.846521 -1.431598186 -0.228840292 0.192027003 -0.003461509 -0.018913951 0.116489783 -0.993005753
1520503217.146531 -1.296450019 -0.126221746 -0.105607942 -0.020226313 -0.003455044 0.038376734 -0.999052644
1520503217.446933 -1.104655266 -0.153015539 -0.277504742 -0.035167646 -0.004270590 -0.023494225 -0.999096096
1520503217.697503 -0.934646606 -0.219647825 -0.332079411 -0.017982148 0.014089471 -0.063903734 -0.997694612
1520503217.797506 -0.868039489 -0.239421770 -0.312258631 0.016634645 0.017744128 -0.055245589 -0.998176515
1520503218.097579 -0.711710691 -0.259415299 -0.106331542 0.063035458 0.011382021 0.034399930 -0.997353315
1520503218.397588 -0.592289925 -0.364948362 0.162755758 0.029642934 0.007154155 0.094803162 -0.995028913
1520503218.696848 -0.494495749 -0.521045744 0.373910129 0.050041713 0.000669482 0.119129300 -0.991616726
1520503218.996682 -0.366085947 -0.690948009 0.489176244 0.063887812 0.012278535 0.138504073 -0.988222778
1520503219.296730 -0.230768830 -0.828187823 0.424031556 0.067426719 0.008503298 0.128380761 -0.989393651
1520503219.596740 -0.115449868 -0.982607186 0.173857778 0.036741354 0.015745934 0.064838178 -0.997094870
1520503219.896850 -0.005467664 -1.171310663 -0.077910058 0.005224653 -0.004322877 0.014108255 -0.999877453
1520503220.197034 0.138032496 -1.372162223 -0.271688163 -0.025691228 -0.009306198 -0.071635716 -0.997056544
1520503220.497037 0.314353585 -1.499695897 -0.319298327 -0.041800600 -0.010726628 -0.129293263 -0.990666986
1520503220.597331 0.368324399 -1.477734685 -0.289162815 -0.053839777 -0.004387964 -0.107564554 -0.992729545
1520503220.897341 0.491287172 -1.251973748 -0.096420474 -0.042309612 0.033778340 0.002509184 -0.998530328
1520503221.197320 0.542766869 -1.039722204 0.195997313 -0.027923111 0.029311469 0.108151622 -0.993309796
1520503221.547039 0.554844022 -0.853494346 0.411458522 -0.012883927 0.036080897 0.145240948 -0.988654256
1520503221.846936 0.552920341 -0.657581329 0.485563159 -0.006315101 0.029063920 0.168403625 -0.985269308
1520503222.146946 0.484809846 -0.443581820 0.351718664 -0.011680189 0.012475204 0.117760263 -0.992895067
1520503222.496858 0.344949484 -0.280782580 0.035804141 -0.066304982 -0.005064300 0.033949602 -0.997208834
1520503222.796920 0.233287185 -0.311172307 -0.175087303 -0.088180162 -0.011514904 -0.022026764 -0.995794356
1520503223.097369 0.115385517 -0.478554308 -0.314343333 -0.067553796 -0.020811506 -0.098483711 -0.992624998
1520503223.397982 -0.017171450 -0.569068789 -0.253542125 -0.048441596 -0.014499360 -0.073151723 -0.996038198
1520503223.547899 -0.100677654 -0.560575485 -0.116378382 -0.039913859 0.002070560 -0.006631145 -0.999179006
1520503223.847160 -0.284998596 -0.605050206 0.234930038 -0.049103621 -0.009898831 0.113446571 -0.992280602
1520503224.197171 -0.479920745 -0.778412461 0.517583132 -0.061836343 0.026780583 0.171858266 -0.982814252
1520503224.546893 -0.677158475 -0.923166096 0.509612143 -0.039660838 0.023596570 0.158067182 -0.986349404
1520503224.846972 -0.846035480 -1.001311302 0.237432376 -0.050106857 -0.005675266 0.071480930 -0.996166408
1520503225.197047 -1.063287616 -1.161560893 -0.116816208 -0.071430787 -0.018338379 -0.001478125 -0.997275889
1520503225.497221 -1.198996425 -1.373303771 -0.291513681 -0.070689827 -0.001795511 -0.065573141 -0.995339155
1520503225.797232 -1.329297185 -1.558427095 -0.344198644 -0.055307798 -0.025597969 -0.141782030 -0.988020062
1520503226.097497 -1.490109205 -1.519714594 -0.187706456 0.017646361 -0.006636429 -0.055618517 -0.998274088
1520503226.497488 -1.689032674 -1.432461500 0.243365765 0.030936049 -0.036623888 0.102862991 -0.993539572
1520503226.597491 -1.717000961 -1.426846147 0.332060546 0.014363356 -0.031751107 0.103058398 -0.994064629
1520503226.897296 -1.764397144 -1.350246549 0.526780963 -0.014878618 0.013663711 0.172609136 -0.984783232
1520503227.197458 -1.806050181 -1.176201224 0.501243889 0.000406940 0.022897199 0.164950296 -0.986036003
1520503227.597219 -1.880834460 -0.868413985 0.120973080 0.008007593 -0.004756525 0.044592086 -0.998961866
1520503227.897147 -1.873511434 -0.775419414 -0.136151597 -0.031502619 -0.008968248 -0.010281699 -0.999410570
1520503228.197156 -1.780760765 -0.729996383 -0.323425472 -0.049665723 -0.025995238 -0.104095876 -0.992986262
1520503228.547548 -1.610795140 -0.497257411 -0.206554919 -0.064595148 -0.013052124 -0.045199901 -0.996801913
1520503228.897916 -1.441752672 -0.237801522 0.127904877 -0.060784552 0.011960540 0.093569130 -0.993683636
1520503229.247202 -1.265689969 -0.182578146 0.410762340 -0.042151473 0.035060301 0.175049543 -0.983031929
1520503229.596975 -1.046715021 -0.213242501 0.458788127 -0.011189749 0.030319989 0.187618762 -0.981710136
1520503229.696978 -0.981566131 -0.215319425 0.408027440 -0.013697025 0.044425305 0.164599344 -0.985264421
1520503230.096980 -0.798056424 -0.343320847 0.078787155 0.013366649 0.041778296 0.049090672 -0.997830689
1520503230.447212 -0.702279568 -0.572561145 -0.104096331 0.070332497 0.083089173 -0.085593022 -0.990365267
1520503230.797612 -0.596792042 -0.691973269 -0.052514046 0.037872665 -0.219836563 -0.064512447 -0.972664237
1520503231.147622 -0.486474216 -0.808209777 -0.034403481 0.014359235 -0.455164611 -0.090607628 -0.885668874
1520503231.447508 -0.427067220 -0.917650700 -0.065014988 0.057079684 -0.019411322 -0.077525966 -0.995165765
1520503231.797537 -0.368867904 -1.086719632 -0.062993161 0.145913512 0.460559368 -0.049945474 -0.874128044
1520503232.097703 -0.345467478 -1.169307470 -0.040687963 0.161458388 0.292567164 -0.003715119 -0.942508280
1520503232.647569 -0.275927186 -1.211888909 -0.027891215 0.036089383 -0.468020558 -0.083845206 -0.878990531
1520503232.947527 -0.290973127 -1.140019774 -0.062283706 0.018332697 -0.228532344 -0.044951096 -0.972325206
1520503233.047530 -0.308591723 -1.110475540 -0.068929464 0.036332086 -0.057092339 -0.034513630 -0.997110426
1520503233.447554 -0.388785392 -1.006758213 -0.072343118 0.140289515 0.503293097 -0.004518873 -0.852639735
1520503233.747683 -0.443859190 -0.884052038 -0.095187373 0.158954963 0.396160483 0.001636982 -0.904316127
1520503234.147660 -0.529693365 -0.734332681 -0.071606211 0.130907267 -0.255093455 -0.059219815 -0.956181884
1520503234.497578 -0.623361707 -0.663633168 -0.053742956 0.037868444 -0.585229039 -0.094396055 -0.804464042
1520503234.797553 -0.698527813 -0.621284842 -0.076056987 -0.013400976 -0.259387374 -0.058824625 -0.963887036
1520503235.147767 -0.759576201 -0.696364582 -0.079654574 0.056593869 0.325880706 -0.027011216 -0.943328917
1520503235.497622 -0.866712987 -0.834566712 -0.060370877 0.101505533 0.580142498 0.008409659 -0.808121681
1520503235.797737 -0.981000423 -0.907102704 -0.064881496 0.097276777 0.155208841 -0.010877762 -0.983020484
1520503236.147576 -1.073675752 -1.004767895 -0.086707532 -0.137511641 -0.177118719 -0.011838877 -0.974463642
1520503236.247579 -1.064706922 -1.038046241 -0.098887712 -0.260770470 -0.165161848 -0.022675367 -0.950897574
1520503236.597713 -1.039003491 -1.151006341 -0.108141392 -0.385036588 -0.063604094 -0.042643927 -0.919718921
1520503236.947860 -1.122406721 -1.168014765 -0.089483991 0.029409237 -0.018252606 -0.041772123 -0.998527467
1520503237.297655 -1.170701981 -1.123113990 -0.080027200 0.330642104 -0.008908928 -0.025742633 -0.943363070
1520503237.647666 -1.018534899 -1.023761272 -0.085876457 -0.033494983 -0.057802517 -0.014044578 -0.997667193
1520503238.047666 -0.766403913 -0.975402832 -0.104531735 -0.328253299 -0.024027074 -0.032188784 -0.943735361
1520503238.397730 -0.707174599 -0.887398899 -0.089208081 0.061683103 0.003406651 -0.018232351 -0.997923434
1520503238.847673 -0.685767889 -0.817806065 -0.091040805 0.402928501 0.024039470 -0.024706790 -0.914582074
1520503239.197739 -0.475608110 -0.753343165 -0.066933282 0.043135822 -0.057272717 0.017531399 -0.997272253
1520503239.597588 -0.201889127 -0.795328677 -0.080292910 -0.201961100 -0.048894133 -0.017662596 -0.978012860
1520503239.697591 -0.175523907 -0.787736833 -0.077390067 -0.129441127 -0.022975843 -0.007902416 -0.991289437
1520503240.047695 -0.135099128 -0.745693445 -0.059620067 0.082850143 -0.022164715 0.015366313 -0.996196985
1520503240.447602 -0.020823210 -0.687221110 -0.074117653 0.030979402 -0.004954755 -0.008092550 -0.999475002
1520503240.847620 0.234009981 -0.577936947 -0.125279009 -0.127467498 -0.025087515 -0.057279494 -0.989869595
1520503241.197825 0.504853964 -0.407896578 -0.105387986 -0.190260619 -0.024858585 -0.039580051 -0.980620444
1520503241.598055 0.766749144 -0.113684140 -0.107162520 -0.206647575 -0.018343076 -0.020639511 -0.978025734
1520503241.948137 0.990217388 0.150034592 -0.077419601 -0.230638146 -0.007071666 -0.019355571 -0.972821355
1520503242.248559 1.155633926 0.411304057 -0.093819000 -0.176842541 -0.001041468 -0.006545546 -0.984216869
1520503242.649071 1.280239224 0.787019610 -0.086392537 -0.081192672 -0.008369888 -0.008977748 -0.996622860
1520503242.949080 1.363517642 1.071626902 -0.070377864 -0.069776662 0.004416562 -0.013536014 -0.997461021
1520503243.199217 1.436216116 1.315397620 -0.083431169 -0.052194331 0.001703011 -0.003524889 -0.998629272
1520503243.449335 1.473260164 1.570346355 -0.082850292 0.020569842 0.007887378 -0.001392321 -0.999756336
1520503243.699343 1.425083280 1.815614104 -0.077982649 0.129777923 0.015689040 0.003447936 -0.991412997
1520503243.899784 1.356281757 2.009636164 -0.081647813 0.180264533 0.018941164 0.011316597 -0.983370721
1520503244.199794 1.233428240 2.257975817 -0.065753207 0.258235276 0.023743764 0.016464883 -0.965649903
1520503244.451239 1.064661026 2.433563948 -0.101571105 0.383194357 0.021771759 0.018909104 -0.923217535
1520503244.653987 0.902638018 2.518265486 -0.088469096 0.505078793 0.018081637 -0.003193278 -0.862877905
1520503244.853993 0.719446301 2.567525625 -0.091764979 0.597035766 0.010650821 0.001644729 -0.802142262
1520503245.054000 0.529227376 2.624833584 -0.089067414 0.628440678 0.018454410 -0.006867426 -0.777608216
1520503245.256289 0.352844149 2.685099602 -0.073375486 0.651118875 0.014304830 -0.000077339 -0.758840978
1520503245.456296 0.147292107 2.724609852 -0.099220946 0.674585283 0.014202735 0.003431356 -0.738052368
1520503245.656693 -0.077506006 2.746974945 -0.094173558 0.706050754 0.013758652 -0.007071706 -0.707992315
1520503245.856595 -0.299894333 2.737620115 -0.075565606 -0.738839865 -0.011091877 -0.000313256 0.673789680
1520503246.056602 -0.536565959 2.722646713 -0.085514985 -0.751121342 0.011758014 -0.015577989 0.659875691
1520503246.305753 -0.816927910 2.722102880 -0.058478415 -0.739820838 0.000924601 -0.011705041 0.672701478
1520503246.555763 -1.117276549 2.735152483 -0.096351512 -0.733418703 0.011709461 -0.005408061 0.679654837
1520503246.754773 -1.357705355 2.732701540 -0.082474582 -0.752255976 0.012587929 0.000114927 0.658750713
1520503246.954779 -1.597718954 2.709761858 -0.070551008 -0.771160781 0.012709027 -0.015958522 0.636313558
1520503247.153935 -1.843189716 2.686877489 -0.085814454 -0.768565476 0.026175437 -0.017331814 0.639000475
1520503247.353941 -2.074600935 2.683163404 -0.061557662 -0.755594194 0.012498429 -0.017998181 0.654673338
1520503247.552769 -2.320888996 2.691157103 -0.082596451 0.741473913 -0.020336520 0.021336570 -0.670334041
1520503247.752774 -2.569048405 2.691000938 -0.079495937 -0.749636650 0.024800735 -0.019168034 0.661106944
1520503247.951603 -2.799024105 2.664122343 -0.054372758 -0.764989257 0.022859160 -0.016846156 0.643416822
1520503248.151610 -3.049734354 2.630242109 -0.080348536 -0.768013835 0.025845623 -0.023784002 0.639469385
1520503248.350634 -3.284412384 2.603095293 -0.052307043 -0.761714280 0.012633504 -0.023948468 0.647347152
1520503248.550639 -3.515016079 2.589297771 -0.057184707 0.750700712 -0.025064558 0.029781291 -0.659494758
1520503248.749802 -3.762268543 2.572640181 -0.090267159 -0.743879378 0.018275924 -0.011713184 0.667961299
1520503248.949808 -3.985089302 2.537137747 -0.055108234 -0.772131503 0.020691074 -0.018600175 0.634853482
1520503249.149192 -4.218314171 2.490095377 -0.073556073 -0.781077802 0.027191877 -0.030967711 0.623072326
1520503249.349198 -4.453399181 2.448977470 -0.072324924 -0.768865645 0.008522085 -0.020453228 0.639026284
1520503249.549204 -4.677905560 2.423304319 -0.059261136 -0.766717315 0.016690660 -0.019070862 0.641484499
1520503249.748956 -4.917373657 2.391282558 -0.089265645 -0.774235964 0.023596277 -0.024788458 0.631971121
1520503249.948962 -5.140832424 2.352995396 -0.058803622 -0.792321920 0.019822642 -0.025341002 0.609254360
1520503250.149184 -5.364115715 2.302527666 -0.062582090 -0.795834601 0.023874341 -0.031051204 0.604245961
1520503250.349190 -5.596372604 2.254184246 -0.070370130 -0.783332109 0.015712557 -0.026598964 0.620835245
1520503250.549626 -5.814645767 2.222801208 -0.039597407 -0.764632344 0.017197965 -0.034172542 0.643330336
1520503250.749633 -6.047639847 2.200891733 -0.068546765 0.745721757 -0.021825809 0.031389434 -0.665159643
1520503250.949908 -6.288969994 2.183275938 -0.073836163 0.743217051 -0.019277317 0.029164674 -0.668136537
1520503251.149914 -6.520227909 2.163272381 -0.055608340 0.733527720 -0.012716901 0.028665934 -0.678935707
1520503251.349751 -6.770642281 2.154994249 -0.076222330 0.710601330 -0.020471307 0.031611588 -0.702586174
1520503251.549757 -7.013016701 2.164686680 -0.056255214 0.671885908 -0.014890280 0.033101425 -0.739764810
1520503251.749394 -7.236955166 2.201493740 -0.043504320 0.637499869 -0.024044460 0.030996656 -0.769451082
1520503251.949400 -7.470250130 2.235256910 -0.062834322 0.637883604 -0.031317934 0.038189437 -0.768547535
1520503252.099147 -7.636496544 2.242301226 -0.045487285 0.660294712 -0.029735180 0.035906311 -0.749558210
1520503252.249151 -7.802861691 2.238212585 -0.037089810 0.684306026 -0.016126554 0.032757595 -0.728280246
1520503252.399156 -7.984494686 2.237819910 -0.046868622 0.697857261 -0.026636392 0.040387999 -0.714600980
1520503252.548861 -8.164312363 2.238032103 -0.037823565 0.697536647 -0.019890644 0.045698632 -0.714813769
1520503252.648864 -8.278582573 2.241532326 -0.019177362 0.698152244 -0.021529544 0.051507559 -0.713769555
1520503252.748867 -8.387936592 2.248927832 -0.009056374 0.703747213 -0.021528648 0.052894183 -0.708151579
1520503252.898613 -8.560127258 2.259667397 -0.029692393 0.706746042 -0.022070678 0.055445328 -0.704945922
1520503252.998617 -8.680778503 2.266262531 -0.044836693 0.715476513 -0.024824589 0.055647407 -0.695974469
1520503253.098619 -8.799587250 2.270148993 -0.046158910 0.724512935 -0.022874577 0.054625381 -0.686712384
1520503253.198623 -8.914105415 2.265710354 -0.035892151 0.735220075 -0.021536624 0.050428692 -0.675606847
1520503253.348415 -9.078907013 2.248002529 -0.029493555 0.748947203 -0.010167111 0.047523834 -0.660845101
1520503253.448418 -9.196931839 2.235170126 -0.041558027 0.753825307 -0.012466196 0.051829554 -0.654908955
1520503253.548421 -9.317628860 2.220998287 -0.050602771 0.755332649 -0.011719844 0.051643044 -0.653198540
1520503253.698243 -9.491462708 2.200694323 -0.034087751 0.751818657 -0.006827245 0.051815312 -0.657295465
1520503253.798246 -9.603454590 2.193433285 -0.018515512 0.746408522 -0.007733015 0.051627330 -0.663437366
1520503253.898249 -9.718559265 2.186425924 -0.022660576 0.743382871 -0.013455811 0.051338155 -0.666757286
1520503253.998252 -9.839932442 2.179123402 -0.043880455 0.736728668 -0.015343903 0.050253872 -0.674143910
1520503254.148087 -10.025957108 2.165915489 -0.066848025 0.739358366 -0.018366966 0.043957844 -0.671624601
1520503254.248090 -10.143917084 2.151840925 -0.057619918 0.745933592 -0.013770143 0.027029624 -0.665329218
1520503254.348093 -10.258207321 2.131971836 -0.044329852 -0.757202089 0.014765060 -0.031140683 0.652270854
1520503254.448096 -10.376333237 2.111056089 -0.047275461 -0.766498446 0.013118644 -0.035915047 0.641106963
1520503254.597944 -10.562990189 2.079846621 -0.067290671 -0.773114622 0.022783417 -0.041005470 0.632529259
1520503254.697948 -10.684479713 2.061174631 -0.070262350 -0.768698633 0.011303968 -0.035774965 0.638509870
1520503254.797951 -10.798208237 2.050159216 -0.056763355 -0.760077357 0.005503037 -0.028057946 0.649203241
1520503254.947804 -10.960210800 2.043093443 -0.045999996 -0.744646907 0.011496899 -0.010014143 0.667284489
1520503255.047808 -11.076634407 2.035651207 -0.061205797 0.738961279 -0.015663100 0.018407464 -0.673314214
1520503255.147811 -11.202342033 2.027272701 -0.078519352 0.738449574 -0.014804655 0.022115584 -0.673783362
1520503255.247814 -11.328907967 2.016196728 -0.078726426 0.746685684 -0.018819584 0.029032225 -0.664276600
1520503255.397700 -11.506079674 1.987574220 -0.047110710 -0.763266921 0.027349960 -0.031469423 0.644736588
1520503255.497703 -11.620992661 1.965189695 -0.040870652 -0.768660903 0.023999000 -0.041106604 0.637883008
1520503255.597706 -11.742560387 1.945172429 -0.058382079 -0.770697951 0.027518308 -0.043086004 0.635146558
1520503255.747617 -11.930498123 1.919919014 -0.087103933 -0.757575810 0.025201984 -0.034174919 0.651364565
1520503255.847620 -12.049419403 1.907174945 -0.076338083 0.744435132 -0.012697455 0.032423977 -0.666786253
1520503255.947623 -12.164435387 1.904184461 -0.053783305 0.729204416 -0.014279388 0.027683288 -0.683586717
1520503256.047626 -12.277380943 1.905702114 -0.043107875 0.719415605 -0.017982561 0.012020075 -0.694243014
1520503256.197563 -12.458083153 1.906201482 -0.063729391 0.710997343 -0.026179796 0.029812362 -0.702074528
1520503256.297567 -12.582599640 1.904812813 -0.073859483 0.711695373 -0.026929827 0.040189411 -0.700820506
1520503256.397570 -12.704768181 1.901216626 -0.065463290 0.722147763 -0.023594575 0.033388242 -0.690529585
1520503256.497572 -12.823792458 1.894400954 -0.043303329 0.733827055 -0.031352915 0.033354543 -0.677792311
1520503256.647525 -13.000787735 1.880799055 -0.030583467 0.745307207 -0.031375051 0.047361404 -0.664296389
1520503256.747532 -13.126489639 1.869659543 -0.041926794 0.742219269 -0.037061434 0.054513600 -0.666907251
1520503256.897533 -13.316972733 1.857068419 -0.046479411 0.725896120 -0.044440679 0.054984372 -0.684161305
1520503257.047507 -13.496912956 1.859512091 -0.024142861 0.709351301 -0.033266634 0.044920757 -0.702635229
1520503257.147511 -13.613026619 1.865911365 -0.020008963 0.700603008 -0.035948422 0.038444143 -0.711607456
1520503257.297515 -13.800326347 1.875152707 -0.046617918 0.688225031 -0.040284295 0.044475347 -0.723011374
1520503257.447497 -13.994109154 1.884515285 -0.055694878 0.691089809 -0.042213295 0.055195674 -0.719420850
1520503257.547500 -14.119265556 1.883288145 -0.041878425 0.704978287 -0.039050929 0.045990288 -0.706658006
1520503257.647503 -14.239843369 1.872730732 -0.026127029 0.718522012 -0.033224460 0.049526729 -0.692942560
1520503257.797484 -14.425752640 1.859156370 -0.029448237 0.724500716 -0.049784355 0.063117974 -0.684570253
1520503257.897487 -14.554259300 1.852747321 -0.036819521 0.718236685 -0.063158274 0.063751623 -0.689987540
1520503257.997489 -14.680310249 1.852014303 -0.032909773 0.711150825 -0.065438136 0.067624211 -0.696713209
1520503258.097494 -14.800720215 1.860839844 -0.019476857 0.703764200 -0.048803750 0.064317629 -0.705830991
1520503258.247459 -14.975546837 1.891306639 -0.015803687 0.691135287 -0.050266184 0.055536106 -0.718833208
1520503258.347462 -15.097859383 1.916477919 -0.033578284 0.677785218 -0.051981021 0.064943597 -0.730539203
1520503258.447465 -15.225028992 1.942205191 -0.051355183 0.672826886 -0.050215404 0.070124447 -0.734755039
1520503258.597403 -15.413702011 1.973179817 -0.042753093 0.672700584 -0.049716797 0.080810934 -0.733806372
1520503258.747408 -15.595113754 1.989231467 -0.024211075 0.692509949 -0.044356223 0.065740652 -0.717036068
1520503258.847411 -15.721437454 2.000661612 -0.034484692 0.696741521 -0.046315134 0.064971425 -0.712870955
1520503258.997449 -15.918316841 2.022358656 -0.055167601 0.689181149 -0.040806279 0.073409334 -0.719705045
1520503259.197456 -16.166074753 2.066565037 -0.040869527 0.667545319 -0.019633140 0.056723274 -0.742145777
1520503259.347461 -16.342355728 2.110302925 -0.039030712 0.659275889 -0.030333757 0.061286815 -0.748785138
1520503259.497447 -16.533021927 2.155245543 -0.067518994 0.655146122 -0.023387158 0.057283916 -0.752964258
1520503259.697453 -16.781490326 2.209314823 -0.062321622 0.666418970 -0.019509915 0.047357038 -0.743816137
1520503259.847466 -16.958074570 2.231546640 -0.048626021 0.684574068 -0.017545626 0.049721297 -0.727033973
1520503259.997471 -17.146820068 2.251855135 -0.064447306 0.692475915 -0.030441293 0.063164510 -0.718025625
1520503260.147475 -17.336902618 2.272222996 -0.062375419 0.683832645 -0.039053027 0.072383292 -0.724988580
1520503260.297474 -17.514337540 2.298395634 -0.040757291 0.679873824 -0.030136168 0.070688702 -0.729291856
1520503260.447479 -17.691431046 2.328000069 -0.049705431 0.681526184 -0.032488674 0.068242133 -0.727880180
1520503260.597484 -17.881723404 2.359037161 -0.078334309 0.686333418 -0.037176933 0.069689140 -0.722985327
1520503260.747489 -18.069900513 2.385259867 -0.073903531 0.693984449 -0.034292243 0.066812150 -0.716062725
1520503260.897494 -18.249095917 2.397519588 -0.056370158 0.710702419 -0.030640049 0.062291596 -0.700059354
1520503261.047500 -18.438539505 2.405084133 -0.076959483 0.717295647 -0.035822198 0.064441741 -0.692857206
1520503261.247507 -18.691970825 2.411260843 -0.085566998 0.707199991 -0.032691635 0.058970984 -0.703791082
1520503261.397517 -18.867708206 2.420919657 -0.068566293 0.701363027 -0.027047263 0.058892973 -0.709852159
1520503261.547558 -19.045810699 2.433337450 -0.082646132 0.700923085 -0.028494721 0.056964125 -0.710387230
1520503261.697522 -19.236391068 2.442825556 -0.105984554 0.706465662 -0.038002852 0.065927833 -0.703644574
1520503261.847530 -19.418865204 2.444627762 -0.091890894 0.722090542 -0.039369576 0.056461170 -0.688365877
1520503261.997535 -19.592872620 2.431158543 -0.077958077 0.740068018 -0.029459726 0.056207128 -0.669531345
1520503262.197541 -19.841810226 2.406744957 -0.097021200 0.747399211 -0.042910051 0.063680865 -0.659922659
1520503262.347541 -20.028293610 2.390705585 -0.086908951 0.742652655 -0.034849588 0.061728854 -0.665914476
1520503262.547548 -20.267055511 2.388857841 -0.067306511 0.740259588 -0.035755955 0.062814273 -0.668424726
1520503262.747547 -20.516189575 2.388292313 -0.095150903 0.739965498 -0.043752205 0.074753441 -0.667044759
1520503262.947552 -20.765018463 2.376654625 -0.080246992 0.752084017 -0.041949082 0.076627307 -0.653252006
1520503263.097542 -20.942970276 2.346860409 -0.065790854 0.770825863 -0.039331235 0.066033170 -0.632392466
1520503263.297548 -21.190742493 2.294908524 -0.081884190 0.780374587 -0.054973036 0.072529063 -0.618654251
1520503263.497594 -21.427524567 2.253088713 -0.060964368 0.775610685 -0.043459099 0.066364162 -0.626206994
1520503263.697601 -21.656999588 2.224650621 -0.069281727 0.768023968 -0.045815248 0.059193436 -0.636031687
1520503263.897615 -21.905649185 2.191641092 -0.094741486 -0.767876804 0.058385588 -0.053785942 0.635659933
1520503264.147624 -22.200155258 2.136877060 -0.062157691 -0.785990894 0.053072900 -0.042349536 0.614498317
1520503264.347637 -22.444753647 2.084996223 -0.081165992 -0.780531049 0.062116824 -0.047836274 0.620181084
1520503264.597645 -22.746248245 2.041137934 -0.058747265 0.752865493 -0.053444766 0.035444129 -0.655042708
1520503264.797659 -22.984537125 2.026741505 -0.076702043 0.741621912 -0.050188523 0.044258185 -0.667472363
1520503264.997665 -23.240564346 2.017177343 -0.097146481 0.737805188 -0.037611749 0.035982918 -0.673003793
1520503265.197685 -23.481264114 1.994473815 -0.069965467 0.754865468 -0.035894055 0.046844203 -0.653219223
1520503265.397692 -23.726436615 1.962149382 -0.090019211 0.751956344 -0.050980229 0.057429008 -0.654724836
1520503265.597706 -23.967187881 1.948991179 -0.079615526 0.722856104 -0.048630469 0.052464396 -0.687285721
1520503265.797712 -24.199281693 1.963728428 -0.067152016 0.695884168 -0.046401553 0.054428857 -0.714583516
1520503266.047730 -24.510274887 1.995966673 -0.095746905 0.680933535 -0.035017099 0.048814520 -0.729877114
1520503266.247736 -24.743904114 2.010651350 -0.068713903 0.695387483 -0.036638308 0.055161051 -0.715577543
1520503266.447757 -24.977174759 2.012709379 -0.087290399 0.702288449 -0.041163769 0.049193215 -0.708996832
1520503266.647763 -25.210577011 2.034600258 -0.088129818 0.681491017 -0.044384629 0.036408421 -0.729571462
1520503266.847780 -25.427051544 2.097015381 -0.067676015 0.642380118 -0.045596261 0.040890463 -0.763935089
1520503267.047786 -25.648082733 2.192686081 -0.095032595 0.591212511 -0.054936614 0.046237133 -0.803313136
1520503267.247804 -25.857004166 2.308104753 -0.086669989 0.551862538 -0.047684751 0.056632508 -0.830642283
1520503267.447810 -26.043806076 2.421079159 -0.079911232 0.522837341 -0.028645227 0.057304796 -0.850021660
1520503267.647819 -26.227333069 2.554496765 -0.099940643 0.470025629 -0.031251531 0.060233127 -0.880040467
1520503267.847826 -26.374877930 2.706074476 -0.074780956 0.393030345 -0.024149384 0.066789545 -0.916778684
1520503268.047820 -26.477800369 2.885470867 -0.071754500 0.310182124 -0.036990084 0.074471056 -0.947033703
1520503268.247826 -26.568822861 3.078172445 -0.088895723 0.256523430 -0.033575494 0.088030733 -0.961935043
1520503268.447800 -26.650346756 3.246587753 -0.062245950 0.227090999 -0.007729117 0.077948451 -0.970718324
1520503268.647806 -26.718074799 3.418172836 -0.067792013 0.194821507 -0.022724265 0.087220810 -0.976688683
1520503268.847801 -26.767164230 3.598333359 -0.078516290 0.142637536 -0.016041107 0.092301615 -0.985331237
1520503269.047807 -26.780187607 3.755594015 -0.073982872 0.087974809 0.001380346 0.081581913 -0.992775381
1520503269.247802 -26.789049149 3.881046772 -0.140900522 0.046993840 -0.000198687 0.065724432 -0.996730626
1520503269.447808 -26.796436310 3.998608351 -0.250996917 0.048902769 0.024231406 0.092097931 -0.994253159
1520503269.647808 -26.800380707 4.104327202 -0.323171496 0.042898268 0.032897417 0.057559885 -0.996877313
1520503269.947818 -26.808589935 4.302324295 -0.436846763 -0.009342224 0.020759776 0.081748769 -0.996392965
1520503270.147824 -26.816883087 4.418634415 -0.488572836 0.001044207 0.030525176 0.054547362 -0.998043954
1520503270.347830 -26.815347672 4.543709755 -0.574382365 0.005076239 0.021974774 0.067283176 -0.997479022
1520503270.547835 -26.808525085 4.683694839 -0.638344228 0.017044324 0.025638126 0.092417195 -0.995244324
1520503270.747841 -26.810619354 4.819985867 -0.702275515 0.015802825 0.027770568 0.079828694 -0.996296406
1520503270.947847 -26.810384750 4.968481064 -0.793521106 0.002791239 0.030158529 0.092367910 -0.995264232
1520503271.147853 -26.808376312 5.099295139 -0.891063213 0.017439747 0.027864724 0.075910784 -0.996572614
1520503271.347858 -26.800981522 5.234931469 -1.006276727 0.034042913 0.028460596 0.090149187 -0.994939327
1520503271.547866 -26.790426254 5.362653732 -1.083193064 0.037130710 0.025429148 0.066615872 -0.996763289
1520503271.747875 -26.782382965 5.503906727 -1.151740789 0.009781079 0.028488917 0.078263789 -0.996477544
1520503271.947881 -26.774318695 5.634495258 -1.207271934 0.012074153 0.017990882 0.069520675 -0.997345209
1520503272.147887 -26.766517639 5.773982048 -1.306764245 0.014977609 0.013961903 0.077988446 -0.996744037
1520503272.397894 -26.756916046 5.940299988 -1.397723317 0.035362739 0.025704376 0.075805448 -0.996163785
1520503272.597903 -26.747407913 6.082385063 -1.482110620 0.007575574 0.033257004 0.097729877 -0.994628310
1520503272.797908 -26.742048264 6.209699154 -1.555158019 0.012783716 0.023679012 0.085884728 -0.995941639
1520503273.097915 -26.738012314 6.409937859 -1.694440961 0.030880319 0.027523257 0.107213527 -0.993375182
1520503273.297923 -26.734014511 6.537309647 -1.766851187 0.030579092 0.030932974 0.079977341 -0.995847285
1520503273.497929 -26.726825714 6.680634975 -1.835111141 -0.004436520 0.029535130 0.101489425 -0.994388223
1520503273.697936 -26.719482422 6.812176704 -1.888165593 0.001897821 0.013776349 0.090946354 -0.995758712
1520503273.947944 -26.708822250 6.995676517 -1.991279602 0.026336076 0.019990651 0.135107338 -0.990279138
1520503274.147947 -26.706668854 7.131830215 -2.051385641 0.039058663 0.014543748 0.131501377 -0.990439475
1520503274.347953 -26.701845169 7.270933151 -2.125442266 0.014852975 0.010883100 0.142079949 -0.989683926
1520503274.547958 -26.693204880 7.397109032 -2.207927465 0.011276533 0.005780916 0.097307093 -0.995173693
1520503274.747965 -26.694076538 7.534944534 -2.319828033 0.009200280 0.014065990 0.093505889 -0.995476842
1520503274.947973 -26.706396103 7.678999901 -2.385722160 0.043043487 0.032256018 0.108809784 -0.992606282
1520503275.147979 -26.720994949 7.842048168 -2.450177193 0.038752187 0.036538783 0.108281389 -0.992692471
1520503275.347989 -26.723766327 8.013958931 -2.509727478 0.016061435 0.029253962 0.116066054 -0.992680728
1520503275.597996 -26.715417862 8.257111549 -2.614154816 0.013048030 0.030592991 0.112022005 -0.993149042
1520503275.798001 -26.711893082 8.466739655 -2.645791769 0.015454950 0.032570984 0.138798699 -0.989664197
1520503276.048008 -26.711456299 8.721877098 -2.667943716 0.006273975 0.037485678 0.119923308 -0.992055416
1520503276.298014 -26.697956085 8.955116272 -2.657865763 -0.033994455 0.032513354 0.111583762 -0.992641032
1520503276.548019 -26.683710098 9.148202896 -2.714034557 -0.027979011 0.021905625 0.101266019 -0.994224608
1520503276.798027 -26.671127319 9.333565712 -2.871109247 -0.005671137 0.001609898 0.112233058 -0.993664443
1520503277.048036 -26.661182404 9.504613876 -2.970998526 -0.009635199 0.012489653 0.092192240 -0.995616317
1520503277.248042 -26.644470215 9.644138336 -3.024347067 -0.019382045 0.010669183 0.108289011 -0.993873239
1520503277.498155 -26.616537094 9.812420845 -3.119885683 0.000691404 0.014721578 0.095350042 -0.995334744
1520503277.748058 -26.593414307 9.977021217 -3.222143412 0.032581501 0.031240758 0.098476090 -0.994115174
1520503277.998067 -26.583642960 10.153272629 -3.315191746 0.008782005 0.028532090 0.086257420 -0.995825589
1520503278.198076 -26.575304031 10.297498703 -3.365128756 -0.011825135 0.018174002 0.090124272 -0.995694518
1520503278.448085 -26.571662903 10.496090889 -3.475099564 0.000489866 0.022891898 0.088518038 -0.995811403
1520503278.698091 -26.598819733 10.716924667 -3.568088055 0.033622924 0.008944335 0.100293785 -0.994349420
1520503278.948098 -26.639696121 10.980418205 -3.651804924 0.038369935 0.003789281 0.119356185 -0.992102563
1520503279.148105 -26.651380539 11.190892220 -3.681058884 0.036741748 0.013650802 0.087319247 -0.995409012
1520503279.398113 -26.663154602 11.482650757 -3.736634731 0.058573943 0.018669520 0.087170921 -0.994294584
1520503279.598120 -26.686952591 11.709626198 -3.691500187 0.087507449 0.016121522 0.087895408 -0.992147684
1520503279.798126 -26.708396912 11.938615799 -3.691560984 0.071863376 0.011189469 0.111806624 -0.991065025
1520503279.998135 -26.706771851 12.150537491 -3.676044226 0.021816459 0.028584749 0.113045432 -0.992938995
1520503280.298137 -26.677827835 12.455947876 -3.690675974 -0.028754350 0.022005573 0.094872847 -0.994830728
1520503280.498144 -26.676826477 12.656516075 -3.674600840 -0.000742404 0.016279887 0.117750987 -0.992909431
1520503280.748147 -26.691917419 12.882863045 -3.668751001 0.026702773 0.015878418 0.118551448 -0.992461860
1520503280.998155 -26.699861526 13.077855110 -3.669900894 -0.005751461 0.018678732 0.114267386 -0.993257821
1520503281.198159 -26.692638397 13.208496094 -3.671869516 -0.019419687 0.033549920 0.114090249 -0.992713809
1520503281.448165 -26.682249069 13.362662315 -3.764849663 -0.017608613 0.021477045 0.105844185 -0.993994832
1520503281.698173 -26.668649673 13.513568878 -3.886269093 0.000292012 0.030797429 0.096556038 -0.994850934
1520503281.948181 -26.663888931 13.655933380 -3.971546412 0.007742422 0.029562101 0.070989020 -0.997008920
1520503282.248200 -26.649137497 13.842243195 -4.068851948 0.005038605 0.033162761 0.069793597 -0.996997356
1520503282.498198 -26.639020920 13.985818863 -4.182418823 0.039234288 0.025218938 0.063412830 -0.996896982
1520503282.748207 -26.615118027 14.138723373 -4.280475616 0.056903008 0.038250055 0.082914069 -0.994195342
1520503283.048216 -26.593236923 14.330909729 -4.375732899 0.027496727 0.029059688 0.083028927 -0.995743752
1520503283.298224 -26.581670761 14.483096123 -4.434824944 0.009273676 0.021773404 0.060399577 -0.997893691
1520503283.548229 -26.575939178 14.636054993 -4.563504696 0.031313810 0.019486045 0.084738001 -0.995720506
1520503283.848267 -26.572057724 14.818036079 -4.677364826 0.045223933 0.015772754 0.086690105 -0.995083332
1520503284.148246 -26.567573547 15.013770103 -4.759858608 0.007972435 0.010441697 0.127617896 -0.991736472
1520503284.548256 -26.556461334 15.251796722 -4.921188354 0.042794447 0.015974859 0.127497137 -0.990786612
1520503284.848267 -26.548095703 15.425663948 -5.018964291 0.081186190 0.040252361 0.096298918 -0.991218984
1520503285.098279 -26.542543411 15.586283684 -5.092000961 0.024736363 0.032577645 0.143932432 -0.988741755
1520503285.348283 -26.523525238 15.741736412 -5.158475876 0.013929569 0.026676148 0.109316930 -0.993551314
1520503285.598288 -26.496387482 15.898633957 -5.276880741 0.025593588 0.039803620 0.152468830 -0.987174690
1520503285.848295 -26.487257004 16.040386200 -5.376730442 0.047969237 0.058463793 0.083538294 -0.993630886
1520503286.098304 -26.484262466 16.205587387 -5.473435402 0.022720492 0.035739224 0.095927797 -0.994486988
1520503286.348315 -26.470666885 16.354955673 -5.564187527 0.034807689 0.030450365 0.077172175 -0.995944619
1520503286.648325 -26.454702377 16.543399811 -5.681990147 0.046383359 0.036206651 0.082193427 -0.994877815
1520503286.898333 -26.446723938 16.708831787 -5.759153366 0.031139139 0.043905262 0.112874031 -0.992150247
1520503287.148340 -26.439266205 16.856586456 -5.812743187 0.029163774 0.031594131 0.115129776 -0.992419541
1520503287.398346 -26.434692383 17.015550613 -5.921514034 0.040683638 0.022142909 0.165558681 -0.985111594
1520503287.648351 -26.417295456 17.157684326 -6.038643360 0.036687739 -0.009610502 0.082149923 -0.995898128
1520503287.898358 -26.394645691 17.313318253 -6.153478622 -0.016483318 0.008272627 0.067353502 -0.997558773
1520503288.148373 -26.370788574 17.448606491 -6.204944134 -0.016876062 0.015288966 0.072747111 -0.997090459
1520503288.498384 -26.333013535 17.664999008 -6.356966972 -0.017754275 0.028761942 0.101718195 -0.994238913
1520503288.748391 -26.330549240 17.808832169 -6.447262764 -0.037557866 0.019942852 0.061465636 -0.997202933
1520503289.048400 -26.318571091 17.997972488 -6.522413731 -0.078810990 0.008344325 0.070629813 -0.994349360
1520503289.298409 -26.299711227 18.162803650 -6.626253605 -0.080916576 0.015174133 0.071038358 -0.994070292
1520503289.548417 -26.276985168 18.343080521 -6.702977180 -0.059128083 0.012705255 0.073004104 -0.995496333
1520503289.798426 -26.274515152 18.563789368 -6.783111095 -0.048802380 0.015139777 0.080395274 -0.995452523
1520503290.048434 -26.272834778 18.792339325 -6.833757401 -0.045499418 0.021474538 0.097439736 -0.993968904
1520503290.298441 -26.263378143 19.001731873 -6.869015217 -0.028410111 0.016069036 0.070904225 -0.996948957
1520503290.548448 -26.258708954 19.221229553 -6.874923229 0.003008642 0.010906792 0.095519356 -0.995363295
1520503290.848455 -26.264675140 19.447750092 -6.868162632 0.028197961 0.029375851 0.116883397 -0.992310524
1520503291.098462 -26.268312454 19.628200531 -6.938417912 -0.028727511 0.027045172 0.142616495 -0.988991320
1520503291.348468 -26.281909943 19.783704758 -6.980563641 -0.049700186 0.009550205 0.102740392 -0.993420005
1520503291.598475 -26.297807693 19.945493698 -7.117524624 -0.045318149 0.021804417 0.093819864 -0.994318247
1520503291.898486 -26.336107254 20.105480194 -7.227246761 -0.018632757 0.009361126 0.056870651 -0.998163760
1520503292.148497 -26.373558044 20.251974106 -7.338103294 -0.031331364 0.019729512 0.073496170 -0.996607959
1520503292.398505 -26.409973145 20.383302689 -7.392391682 -0.024056023 0.020753436 0.073387966 -0.996797323
1520503292.648515 -26.432508469 20.531299591 -7.527636528 0.000227078 0.020227410 0.071433648 -0.997240245
1520503292.898524 -26.436391830 20.663240433 -7.609749317 -0.000346791 0.026929699 0.060493205 -0.997805238
1520503293.148532 -26.438272476 20.805875778 -7.704674721 -0.034166172 0.040372189 0.068915680 -0.996219575
1520503293.398542 -26.434261322 20.951131821 -7.753597260 -0.051326223 0.026226986 0.062483281 -0.996380270
1520503293.648550 -26.411266327 21.105718613 -7.869376183 -0.055992834 0.012857561 0.066097617 -0.996157885
1520503293.948559 -26.356328964 21.279985428 -7.957894802 -0.074475259 0.023373738 0.066990480 -0.994695663
1520503294.198566 -26.284597397 21.426847458 -8.043245316 -0.133260071 0.026302719 0.086961195 -0.986908138
1520503294.498577 -26.150529861 21.584457397 -8.110315323 -0.218800247 0.022357963 0.073349096 -0.972752035
1520503294.848585 -25.882532120 21.801483154 -8.249689102 -0.319919348 0.031539459 0.101568930 -0.941456676
1520503295.098594 -25.650756836 21.885122299 -8.241400719 -0.427162617 0.030744337 0.073732533 -0.900638938
1520503295.348617 -25.359518051 21.886892319 -8.266857147 -0.586674988 0.040274736 0.078537270 -0.804998338
1520503295.648627 -25.054176331 21.714605331 -8.276980400 -0.774358332 0.047942299 0.050181814 -0.628929675
1520503295.898702 -24.840658188 21.519409180 -8.293367386 -0.851008773 0.047581490 0.048273373 -0.520758867
1520503296.148711 -24.670093536 21.320905685 -8.274898529 -0.899874389 0.059095908 0.036845159 -0.430553257
1520503296.398758 -24.510135651 21.096893311 -8.300341606 -0.939490795 0.065992177 0.032270391 -0.334605336
1520503296.648750 -24.403442383 20.857158661 -8.267145157 -0.970915616 0.078844726 0.017897649 -0.225357771
1520503296.898758 -24.341955185 20.580430984 -8.298331261 -0.988705814 0.075395353 0.017449962 -0.128343210
1520503297.148754 -24.299871445 20.291732788 -8.257814407 -0.993008196 0.084142298 0.015560886 -0.081318676
1520503297.398757 -24.254034042 20.012462616 -8.280282974 -0.993185580 0.089942716 0.001459365 -0.074099384
1520503297.648766 -24.230655670 19.710189819 -8.268134117 -0.996932685 0.077756546 -0.006042419 -0.006526778
1520503297.948778 -24.266435623 19.352630615 -8.292393684 -0.995219827 0.074021481 -0.004489929 0.063547380
1520503298.198823 -24.295888901 19.038089752 -8.289365768 -0.995847583 0.060301274 -0.006067817 0.067930631
1520503298.448804 -24.311031342 18.723506927 -8.290827751 -0.996144354 0.073794618 -0.007913861 0.046777662
1520503298.698817 -24.353136063 18.397712708 -8.289311409 -0.994456828 0.067858323 -0.017613074 0.078362703
1520503298.948825 -24.432027817 18.097944260 -8.290351868 -0.991264939 0.068303339 -0.023436178 0.110359721
1520503299.198843 -24.518791199 17.776136398 -8.300954819 -0.990117490 0.074229561 -0.023157874 0.116709679
1520503299.448867 -24.585395813 17.467082977 -8.271048546 -0.992012441 0.084347539 -0.021963026 0.091183692
1520503299.698872 -24.669393539 17.145021439 -8.300239563 -0.991645992 0.070310093 -0.032348830 0.103190511
1520503299.948890 -24.777151108 16.845451355 -8.277842522 -0.986996651 0.065168016 -0.026727479 0.144486964
1520503300.198898 -24.880771637 16.511333466 -8.316360474 -0.985953867 0.069615819 -0.027209397 0.149359480
1520503300.448944 -24.947969437 16.191865921 -8.269669533 -0.990924001 0.059279706 -0.011335489 0.120112933
1520503300.698982 -25.009069443 15.865488052 -8.303727150 -0.989876270 0.069883600 -0.006510577 0.123365007
1520503300.948991 -25.101819992 15.569485664 -8.264341354 -0.984726071 0.072339892 -0.015542299 0.157606900
1520503301.199038 -25.211723328 15.263481140 -8.310477257 -0.981497109 0.067151584 -0.013562451 0.178802013
1520503301.449044 -25.323106766 14.952972412 -8.273484230 -0.981572986 0.084281869 -0.009838029 0.171214178
1520503301.749104 -25.431858063 14.578190804 -8.294369698 -0.984269381 0.084585510 -0.021895699 0.153556883
1520503302.049137 -25.547771454 14.234932899 -8.274686813 -0.982623696 0.057736441 -0.019157046 0.175357640
1520503302.399186 -25.710302353 13.810439110 -8.318724632 -0.981229246 0.050216891 -0.027324056 0.184176371
1520503302.649193 -25.793716431 13.491444588 -8.273631096 -0.987893581 0.061556116 -0.023478087 0.140448794
1520503302.949200 -25.861963272 13.114908218 -8.296961784 -0.990092814 0.067302532 -0.058991477 0.108196847
1520503303.199154 -25.937816620 12.817688942 -8.277503967 -0.989857674 0.061374210 -0.045705639 0.119691506
1520503303.499163 -26.013837814 12.429519653 -8.311678886 -0.995055437 0.032206886 -0.021757562 0.091400206
1520503303.749153 -26.033943176 12.116649628 -8.266230583 -0.995730221 0.074956693 -0.040694255 0.035310227
1520503303.999105 -26.049507141 11.791568756 -8.288393021 -0.996350586 0.076053701 -0.031909529 0.021982076
1520503304.349090 -26.097782135 11.371620178 -8.303910255 -0.996137261 0.058914412 -0.035018243 0.054894682
1520503304.599192 -26.117300034 11.041275978 -8.299960136 -0.997436821 0.062341824 -0.018334759 0.029953023
1520503304.849104 -26.110334396 10.723288536 -8.284670830 -0.996717930 0.079461776 -0.011673893 -0.010144345
1520503305.099113 -26.092357635 10.405562401 -8.290566444 -0.997217596 0.071244732 -0.021331752 -0.005132893
1520503305.449100 -26.093482971 9.979129791 -8.298263550 -0.996419132 0.082159415 -0.009171595 0.017740745
1520503305.699111 -26.108427048 9.661145210 -8.292312622 -0.997275174 0.072474919 0.006894476 0.011921275
1520503306.049125 -26.099666595 9.232630730 -8.311208725 -0.997787714 0.066247180 -0.005479051 -0.000971398
1520503306.299134 -26.105531693 8.939325333 -8.270133018 -0.996316612 0.075843975 -0.019467384 0.034956746
1520503306.549147 -26.124515533 8.634858131 -8.317849159 -0.998864233 0.039343469 -0.009963378 0.024961311
1520503306.899166 -26.117643356 8.196649551 -8.284589767 -0.997993231 0.060566287 -0.014274542 -0.011724651
1520503307.149175 -26.080614090 7.876169205 -8.314658165 -0.996130228 0.075872004 -0.025012048 -0.036639787
1520503307.399167 -26.059289932 7.576281071 -8.259848595 -0.995198309 0.094016135 -0.025530372 -0.009463158
1520503307.649165 -26.046806335 7.272902966 -8.317394257 -0.996790826 0.077744499 -0.019015543 -0.001533020
1520503307.899173 -26.017810822 6.963747978 -8.298871994 -0.997488737 0.062123582 -0.006904602 -0.033304557
1520503308.199189 -25.963905334 6.603393078 -8.324161530 -0.993824363 0.080240399 -0.016257275 -0.074902102
1520503308.549186 -25.924825668 6.180145741 -8.268917084 -0.995537102 0.086144768 -0.023034463 -0.030894488
1520503308.899190 -25.899860382 5.743155479 -8.319719315 -0.996768355 0.074689426 -0.015605519 -0.025116529
1520503309.149198 -25.852083206 5.447881222 -8.293860435 -0.995205641 0.073170416 -0.021426709 -0.061259836
1520503309.399206 -25.815818787 5.128870964 -8.354756355 -0.997588992 0.047186494 -0.011640199 -0.049539257
1520503309.649214 -25.805006027 4.810808182 -8.298591614 -0.998467743 0.055235423 -0.002058716 -0.002665870
1520503309.949226 -25.808717728 4.420523643 -8.344984055 -0.998044431 0.060322147 -0.014495790 0.007654920
1520503310.199235 -25.786130905 4.115536213 -8.299843788 -0.998792112 0.041752104 -0.011365933 -0.023279332
1520503310.449244 -25.755784988 3.791482925 -8.354366302 -0.997927368 0.044973984 -0.035601601 -0.029168971
1520503310.799249 -25.746534348 3.340607643 -8.286239624 -0.997674048 0.057977904 -0.017640185 0.031206051
1520503311.049256 -25.739965439 3.018501282 -8.331277847 -0.996472061 0.079199143 -0.005468201 0.027221369
1520503311.299257 -25.714082718 2.707446337 -8.287805557 -0.998032033 0.057289675 -0.007036940 -0.024506351
1520503311.499263 -25.696441650 2.453225136 -8.320454597 -0.996825933 0.068513341 -0.013916194 -0.038082924
1520503311.749266 -25.674753189 2.136252880 -8.290594101 -0.996559799 0.079585835 -0.020963285 -0.009757569
1520503311.999274 -25.676694870 1.827104688 -8.310655594 -0.997589767 0.068990543 -0.003980636 0.006258876
1520503312.299286 -25.664278030 1.437437296 -8.312452316 -0.998578191 0.053262990 -0.001654426 -0.001415449
1520503312.549304 -25.621347427 1.129850864 -8.320421219 -0.997141659 0.061810024 -0.027325423 -0.033784240
1520503312.749310 -25.595659256 0.868492663 -8.315160751 -0.996524572 0.079600722 -0.018058423 -0.016626168
1520503313.099314 -25.575590134 0.430910110 -8.301875114 -0.995761991 0.091139510 -0.008284884 0.009114791
1520503313.349321 -25.556770325 0.107068077 -8.314971924 -0.996704459 0.081030563 -0.003241127 -0.001958831
1520503313.649331 -25.506341934 -0.265929580 -8.324526787 -0.996101975 0.077257007 -0.013306877 -0.040437832
1520503313.899342 -25.464242935 -0.589741945 -8.310449600 -0.997500479 0.051483888 -0.023800876 -0.042139571
1520503314.249356 -25.434478760 -1.032247901 -8.325574875 -0.996473730 0.076400340 -0.011019448 -0.032890573
1520503314.449362 -25.412521362 -1.294294000 -8.317076683 -0.996718049 0.065267436 -0.009801725 -0.046874274
1520503314.699372 -25.376127243 -1.607942343 -8.306538582 -0.993356168 0.073023133 -0.017495679 -0.087207109
1520503314.899378 -25.359140396 -1.865104914 -8.320573807 -0.995858371 0.065842919 -0.023886818 -0.057968505
1520503315.149394 -25.373653412 -2.170374393 -8.295686722 -0.997967303 0.056974344 -0.028275762 -0.003958483
1520503315.399392 -25.384220123 -2.499239922 -8.353651047 -0.997585297 0.061516698 -0.025515521 0.019706482
1520503315.649400 -25.371837616 -2.815526724 -8.313671112 -0.998799503 0.044691011 -0.008050348 -0.018370874
1520503315.899396 -25.338197708 -3.139429569 -8.322978020 -0.995392025 0.088439696 -0.017025722 -0.032914840
1520503316.149403 -25.312715530 -3.448708773 -8.285004616 -0.997082651 0.074506767 -0.004580893 -0.015940344
1520503316.449393 -25.304830551 -3.829128265 -8.322737694 -0.996664226 0.081450686 -0.001735268 -0.004818269
1520503316.649387 -25.291137695 -4.085620880 -8.293828964 -0.997511506 0.065150708 0.022362543 -0.015040743
1520503316.849394 -25.260744095 -4.336863995 -8.296009064 -0.996637046 0.070894174 0.027014969 -0.030966252
1520503317.049391 -25.227689743 -4.589241505 -8.298666954 -0.995365918 0.088748828 0.019383682 -0.031537749
1520503317.349401 -25.203365326 -4.950997829 -8.270848274 -0.993280530 0.113942795 0.016989497 -0.011055253
1520503317.549390 -25.188287735 -5.208814144 -8.300491333 -0.992727518 0.119031355 0.012387071 -0.013046095
1520503317.749396 -25.163221359 -5.454835415 -8.274534225 -0.994379520 0.095783614 0.012840106 -0.043244459
1520503317.949394 -25.130401611 -5.704593658 -8.297346115 -0.993444443 0.098606691 0.010528071 -0.056868397
1520503318.199402 -25.096916199 -6.023696423 -8.280994415 -0.995480895 0.084083296 -0.012177553 -0.042419873
1520503318.449406 -25.090785980 -6.330434799 -8.286846161 -0.995990276 0.087488629 -0.002630024 -0.018498197
1520503318.699414 -25.077648163 -6.653021336 -8.310363770 -0.997253418 0.072737753 -0.001961125 -0.013818287
1520503318.899420 -25.051200867 -6.897189617 -8.278186798 -0.996871591 0.067153484 -0.006138114 -0.041228201
1520503319.149428 -25.019910812 -7.220829487 -8.312528610 -0.995451570 0.080762699 -0.014470352 -0.048417218
1520503319.499434 -25.000236511 -7.658557892 -8.286296844 -0.997371316 0.069877684 -0.006234337 -0.018132037
1520503319.749442 -24.988338470 -7.978987217 -8.310207367 -0.996044695 0.087282166 0.006636773 -0.015258687
1520503319.999448 -24.957929611 -8.282287598 -8.282127380 -0.996560514 0.067656286 0.002476215 -0.047788296
1520503320.199455 -24.927003860 -8.535960197 -8.313929558 -0.995829701 0.071733616 -0.018417414 -0.053276151
1520503320.399458 -24.906087875 -8.781854630 -8.282686234 -0.997366130 0.061987553 -0.021639336 -0.030824000
1520503320.699471 -24.899974823 -9.151345253 -8.304948807 -0.996628940 0.080681190 -0.010440184 -0.010601943
1520503320.949479 -24.893411636 -9.473968506 -8.280862808 -0.996707797 0.074267611 -0.007467452 -0.031655386
1520503321.199481 -24.867460251 -9.789930344 -8.299549103 -0.994971871 0.082648560 -0.020462064 -0.052740313
1520503321.549491 -24.848432541 -10.232291222 -8.272652626 -0.997113585 0.073576100 -0.017503347 -0.006685868
1520503321.799498 -24.860095978 -10.551909447 -8.318103790 -0.996437609 0.080007836 -0.026497366 0.002961115
1520503321.999506 -24.866279602 -10.804631233 -8.295159340 -0.996659577 0.078621499 -0.017059086 -0.014049355
1520503322.199512 -24.850828171 -11.045825005 -8.300764084 -0.997262418 0.064411856 -0.017568117 -0.031783454
1520503322.449519 -24.836114883 -11.369623184 -8.321077347 -0.996844232 0.067063980 -0.032434471 -0.027425261
1520503322.699527 -24.855630875 -11.676840782 -8.284812927 -0.996957421 0.070344910 -0.030134585 0.014813661
1520503322.999535 -24.870552063 -12.046197891 -8.330403328 -0.995309711 0.089188248 -0.036972050 -0.006092751
1520503323.249542 -24.848045349 -12.345719337 -8.309560776 -0.997221172 0.053104319 -0.020511428 -0.048054747
1520503323.499549 -24.819667816 -12.659693718 -8.356048584 -0.996286392 0.064372800 -0.028290812 -0.049691468
1520503323.849561 -24.803041458 -13.091473579 -8.328637123 -0.998072445 0.061582699 -0.007291641 -0.002448442
1520503324.149572 -24.780544281 -13.475541115 -8.339425087 -0.997919917 0.056794107 -0.012001053 -0.028040476
1520503324.399579 -24.724660873 -13.788919449 -8.322468758 -0.994338453 0.083404101 -0.015792023 -0.063917130
1520503324.649587 -24.657882690 -14.103277206 -8.319295883 -0.989334524 0.125442937 -0.024948712 -0.069705829
1520503324.849580 -24.629251480 -14.333676338 -8.304879189 -0.994340420 0.091891311 -0.010873647 -0.052201148
1520503325.049585 -24.600244522 -14.578025818 -8.343164444 -0.994088829 0.096113659 -0.021801714 -0.045544334
1520503325.299594 -24.559701920 -14.885203362 -8.314471245 -0.994679868 0.086712360 -0.009397257 -0.054814614
1520503325.599605 -24.483732224 -15.252980232 -8.334675789 -0.991033733 0.104714312 -0.018001514 -0.081012651
1520503325.949613 -24.407648087 -15.651506424 -8.308809280 -0.995091856 0.084860630 -0.015006897 -0.048639406
1520503326.199617 -24.362348557 -15.962266922 -8.347053528 -0.994894862 0.086057156 -0.010805660 -0.051591273
1520503326.449627 -24.301176071 -16.265081406 -8.300541878 -0.991114140 0.093586691 -0.008676465 -0.094122201
1520503326.799638 -24.213560104 -16.695093155 -8.318682671 -0.992609680 0.091100171 -0.011266999 -0.079372048
1520503327.049642 -24.187755585 -16.989870071 -8.302801132 -0.996295094 0.075645380 -0.004505579 -0.040665209
1520503327.299651 -24.171977997 -17.312252045 -8.326707840 -0.994357586 0.098427773 -0.011228783 -0.037933167
1520503327.549659 -24.124074936 -17.615226746 -8.289937019 -0.992389023 0.095521934 -0.005517629 -0.077519268
1520503327.749661 -24.077371597 -17.869243622 -8.332212448 -0.991283894 0.094135672 -0.000833941 -0.092162713
1520503327.999669 -24.046607971 -18.172361374 -8.296584129 -0.994897425 0.089515485 -0.023354830 -0.040258646
1520503328.249676 -24.044136047 -18.487113953 -8.335505486 -0.995546699 0.090071611 -0.020513894 -0.018791726
1520503328.499682 -24.028030396 -18.804565430 -8.315418243 -0.996270359 0.081871331 0.000437525 -0.027246509
1520503328.749691 -23.974761963 -19.108922958 -8.338249207 -0.993668616 0.083355099 -0.019844841 -0.072669387
1520503328.999698 -23.935125351 -19.424205780 -8.326781273 -0.996248960 0.073654816 -0.028958123 -0.034992844
1520503329.249706 -23.923355103 -19.725189209 -8.333194733 -0.996718526 0.074630357 -0.028533416 -0.012973307
1520503329.499715 -23.914461136 -20.046152115 -8.338260651 -0.996227503 0.081059285 -0.015568702 -0.026791442
1520503329.749721 -23.873266220 -20.357538223 -8.315407753 -0.994117260 0.083199210 -0.021679470 -0.065869264
1520503329.999728 -23.824489594 -20.673288345 -8.324669838 -0.993916333 0.095265090 -0.014408282 -0.053360630
1520503330.249732 -23.806825638 -20.970350266 -8.305839539 -0.996981025 0.075542040 -0.003416740 -0.017622733
1520503330.499741 -23.784318924 -21.294612885 -8.348197937 -0.995343328 0.087189607 -0.023804715 -0.033512902
1520503330.749750 -23.744613647 -21.616889954 -8.299160957 -0.994132221 0.094585493 -0.008419874 -0.051806122
1520503330.999754 -23.700883865 -21.942890167 -8.341767311 -0.992518127 0.100768127 -0.022287754 -0.065244220
1520503331.249763 -23.687860489 -22.246168137 -8.311699867 -0.996536255 0.078742944 -0.017197605 -0.020476755
1520503331.499772 -23.690496445 -22.565975189 -8.375736237 -0.997417390 0.065867901 -0.026793845 -0.010101104
1520503331.749785 -23.672887802 -22.893581390 -8.331028938 -0.996245861 0.063962415 -0.014494008 -0.056506194
1520503331.999792 -23.633380890 -23.215759277 -8.352986336 -0.994413674 0.078205355 -0.014015898 -0.069490358
1520503332.249796 -23.609367371 -23.530998230 -8.323911667 -0.996525466 0.079012819 -0.017897328 -0.019333545
1520503332.499804 -23.613775253 -23.844745636 -8.357422829 -0.997108817 0.072719596 -0.016189681 0.014959141
1520503332.749813 -23.607450485 -24.182380676 -8.342873573 -0.996739626 0.080328695 -0.007554896 0.000668889
1520503332.949819 -23.576274872 -24.439283371 -8.331236839 -0.996145308 0.076756261 -0.019418996 -0.037762444
1520503333.199827 -23.547740936 -24.775133133 -8.351928711 -0.996720612 0.078397714 -0.013781914 -0.014558990
1520503333.449835 -23.546464920 -25.085401535 -8.331468582 -0.997782350 0.061719798 -0.010451327 0.022625411
1520503333.749844 -23.547239304 -25.489961624 -8.368896484 -0.996441603 0.065383554 -0.018306613 0.049939781
1520503333.999857 -23.513458252 -25.819263458 -8.327304840 -0.995697618 0.086332209 -0.029391605 -0.016405109
1520503334.249862 -23.466653824 -26.156784058 -8.347426414 -0.994984508 0.094392613 -0.021680195 -0.025016705
1520503334.599870 -23.451606750 -26.616298676 -8.341856956 -0.997410893 0.064228415 -0.027226817 0.017465228
1520503334.849882 -23.439220428 -26.954589844 -8.351188660 -0.997085571 0.072375141 -0.023336379 -0.006130135
1520503335.149892 -23.384996414 -27.333318710 -8.345045090 -0.994317293 0.081576273 -0.010921445 -0.067522630
1520503335.399900 -23.357204437 -27.661464691 -8.334680557 -0.995403707 0.081417136 -0.024717582 -0.043952517
1520503335.649904 -23.381080627 -27.977939606 -8.334295273 -0.996759951 0.078923710 -0.011943943 0.009909049
1520503335.949915 -23.402877808 -28.375875473 -8.336841583 -0.996384144 0.084705964 -0.005216402 0.004037425
1520503336.199924 -23.390436172 -28.699081421 -8.334802628 -0.994802892 0.092479259 -0.021430492 -0.036816977
1520503336.449930 -23.387847900 -29.033267975 -8.344351768 -0.996643543 0.078058109 -0.021450186 -0.012185640
1520503336.749938 -23.436668396 -29.419649124 -8.358909607 -0.996784389 0.069738366 -0.021818083 0.032887589
1520503337.049953 -23.476272583 -29.812625885 -8.344382286 -0.996476293 0.082147837 -0.016200030 0.004933241
1520503337.349963 -23.472570419 -30.196472168 -8.356299400 -0.995321810 0.091554165 -0.026816804 -0.015270680
1520503337.649968 -23.464843750 -30.576534271 -8.318299294 -0.996251464 0.083645672 -0.017209617 0.013796025
1520503337.949979 -23.453590393 -30.972995758 -8.354495049 -0.994597256 0.102596782 -0.015813809 -0.000482644
1520503338.349990 -23.380561829 -31.488946915 -8.341618538 -0.992354274 0.100249663 -0.012095158 -0.070970356
1520503338.599998 -23.332490921 -31.809875488 -8.330135345 -0.993710697 0.102278411 -0.012514556 -0.043836080
1520503338.850006 -23.304317474 -32.111530304 -8.325560570 -0.991430461 0.122189514 -0.022273960 -0.040488552
1520503339.100010 -23.274913788 -32.439136505 -8.353899002 -0.994209349 0.098160230 -0.025745291 -0.035348687
1520503339.400020 -23.217071533 -32.818050385 -8.360677719 -0.992305696 0.092146106 -0.013656004 -0.081560791
1520503339.800136 -23.173141479 -33.318107605 -8.339516640 -0.995941162 0.085293315 -0.003301192 -0.028556615
1520503340.100050 -23.165813446 -33.703678131 -8.386460304 -0.996238708 0.085431419 -0.008226392 -0.011930610
1520503340.350061 -23.149608612 -34.022857666 -8.346280098 -0.995625377 0.088398390 -0.003523614 -0.030057482
1520503340.650070 -23.118165970 -34.409721375 -8.374498367 -0.994340837 0.100715533 -0.024463674 -0.023328805
1520503340.950078 -23.110252380 -34.774948120 -8.350853920 -0.996176004 0.081898563 -0.026706899 0.014587894
1520503341.250088 -23.107067108 -35.165882111 -8.371178627 -0.994618654 0.100234516 -0.026185775 -0.001049008
1520503341.550095 -23.063692093 -35.542713165 -8.359601021 -0.993621767 0.101989664 -0.017082704 -0.044968020
1520503341.800103 -23.026750565 -35.870044708 -8.353454590 -0.994144738 0.104236953 -0.013337630 -0.025161752
1520503342.050111 -23.029315948 -36.172443390 -8.348653793 -0.994939208 0.096462421 -0.017762797 0.021804899
1520503342.350121 -23.022804260 -36.563686371 -8.375331879 -0.994883716 0.096340865 -0.018166648 0.024389563
1520503342.650135 -22.964979172 -36.954490662 -8.356963158 -0.993138075 0.110127211 -0.023812244 -0.031333461
1520503342.950148 -22.924179077 -37.339809418 -8.342643738 -0.994640887 0.101279661 -0.020769363 0.000817621
1520503343.250160 -22.926284790 -37.714145660 -8.389905930 -0.995379329 0.090609595 -0.019649506 0.024976399
1520503343.550170 -22.913856506 -38.100795746 -8.355072975 -0.995728850 0.091357589 -0.008782886 -0.010039210
1520503343.950184 -22.901714325 -38.615104675 -8.356157303 -0.993829131 0.108358078 -0.022081278 0.008636274
1520503344.300188 -22.949943542 -39.047832489 -8.379817963 -0.992118955 0.111157589 -0.025548387 0.051877607
1520503344.550195 -22.985017776 -39.373973846 -8.362555504 -0.993577063 0.106202744 -0.013177672 0.036769442
1520503344.800203 -22.989704132 -39.692821503 -8.370398521 -0.992115974 0.121820360 -0.029300263 -0.002686650
1520503345.050205 -22.987205505 -40.018939972 -8.367090225 -0.994349897 0.102093533 -0.021133840 0.019968055
1520503345.350211 -23.016788483 -40.397338867 -8.395592690 -0.993923783 0.097500995 -0.022052094 0.046073969
1520503345.600219 -23.037874222 -40.724979401 -8.388351440 -0.994581461 0.101585388 -0.006849899 0.021004051
1520503345.900231 -23.028306961 -41.114631653 -8.388374329 -0.993261099 0.109399334 -0.028727204 -0.025277440
1520503346.150234 -23.025588989 -41.441291809 -8.379018784 -0.995733738 0.087784439 -0.025647230 0.012269921
1520503346.550248 -23.035015106 -41.952400208 -8.423635483 -0.996008277 0.084295936 -0.020939555 0.020573920
1520503346.800256 -23.012504578 -42.282135010 -8.377814293 -0.996402383 0.081757911 -0.005098543 -0.021724215
1520503347.100265 -22.960741043 -42.688812256 -8.395112038 -0.992511332 0.114529766 -0.016848713 -0.038992133
1520503347.350268 -22.966117859 -43.010471344 -8.371296883 -0.995764196 0.090037741 -0.018611420 0.000686962
1520503347.600275 -22.988306046 -43.355510712 -8.425064087 -0.994789243 0.094233371 -0.019939810 0.033419132
1520503347.850286 -22.989131927 -43.691329956 -8.376398087 -0.995757520 0.090214431 -0.016267220 0.007980599
1520503348.200297 -22.960412979 -44.171493530 -8.384167671 -0.994386733 0.104262643 -0.012288039 0.013168447
1520503348.500303 -22.978332520 -44.560386658 -8.387051582 -0.992879748 0.102398396 -0.019088898 0.057793669
1520503348.750311 -22.998254776 -44.899356842 -8.406345367 -0.992692292 0.104090847 -0.029699594 0.053338621
1520503349.000320 -22.984600067 -45.226963043 -8.394385338 -0.995460749 0.091826752 -0.024963178 -0.001609206
1520503349.250328 -22.966121674 -45.572254181 -8.393182755 -0.995186090 0.095668085 -0.021226309 0.001317684
1520503349.550334 -22.988611221 -45.970787048 -8.388199806 -0.994830370 0.096257485 -0.021797664 0.023918122
1520503349.800341 -23.012281418 -46.316097260 -8.407177925 -0.995136559 0.090633623 -0.014374040 0.035807278
1520503350.100351 -23.004959106 -46.714313507 -8.393067360 -0.995241404 0.094145887 -0.018031070 -0.017495094
1520503350.400361 -23.011800766 -47.117156982 -8.373913765 -0.994886935 0.095039196 -0.022914870 0.025344772
1520503350.700371 -23.047910690 -47.512248993 -8.407209396 -0.992175102 0.104114570 -0.023982059 0.064603359
1520503350.950375 -23.061306000 -47.853313446 -8.376884460 -0.993311584 0.108022466 -0.012806342 0.038720977
1520503351.200383 -23.038515091 -48.188064575 -8.401399612 -0.993378341 0.112231009 -0.023491858 -0.007201079
1520503351.450387 -23.030775070 -48.517948151 -8.384320259 -0.994201422 0.100179479 -0.032572441 0.021604072
1520503351.700395 -23.049139023 -48.849048615 -8.411193848 -0.993467331 0.100117937 -0.029892363 0.045887768
1520503352.000405 -23.059165955 -49.259239197 -8.393507957 -0.993418276 0.109127335 -0.027325429 0.021557808
1520503352.300414 -23.043373108 -49.666900635 -8.424846649 -0.993886352 0.106794931 -0.027272139 0.006403302
1520503352.650424 -23.054170609 -50.124809265 -8.393043518 -0.992433906 0.102598973 -0.033006579 0.058814242
1520503352.950433 -23.084762573 -50.535152435 -8.422152519 -0.990539134 0.116967767 -0.026131671 0.066842556
1520503353.200441 -23.078678131 -50.863121033 -8.396080017 -0.992545187 0.106628701 -0.030445004 0.050571572
1520503353.450449 -23.073030472 -51.200374603 -8.420236588 -0.990280747 0.117231868 -0.026717084 0.069906734
1520503353.700457 -23.075397491 -51.515312195 -8.405982018 -0.991377175 0.092652194 -0.023429407 0.089654654
1520503353.950467 -23.074775696 -51.853122711 -8.456210136 -0.991001129 0.102642335 -0.029729966 0.080606617
1520503354.250584 -23.026683807 -52.256027222 -8.419615746 -0.995205820 0.094595477 -0.018511565 0.016564149
1520503354.500487 -22.971698761 -52.598564148 -8.438435555 -0.992140234 0.124832682 -0.007293554 -0.004634184
1520503354.750490 -22.954765320 -52.924491882 -8.420516968 -0.994976640 0.098450348 -0.011439470 0.014080411
1520503355.000498 -22.952579498 -53.267662048 -8.466126442 -0.993285596 0.111984350 -0.013261167 0.025835581
1520503355.450516 -22.912548065 -53.885124207 -8.461009979 -0.994042993 0.103975169 -0.008073729 -0.031663761
1520503355.750525 -22.916334152 -54.287105560 -8.430493355 -0.994872630 0.096648015 -0.018838782 0.023081519
1520503356.050536 -22.952896118 -54.696834564 -8.479232788 -0.993097305 0.103282228 -0.023884367 0.050200723
1520503356.300547 -22.967830658 -55.040359497 -8.440458298 -0.995916426 0.083634190 -0.020956228 0.026769863
1520503356.550555 -22.955055237 -55.396324158 -8.468925476 -0.995105565 0.097099289 -0.017605873 0.005172262
1520503356.800563 -22.964851379 -55.727321625 -8.435383797 -0.994852543 0.088714853 -0.023549274 0.042937003
1520503357.050570 -22.990982056 -56.071411133 -8.486455917 -0.994166970 0.084032819 -0.020139961 0.064536564
1520503357.350579 -23.013021469 -56.483467102 -8.455945015 -0.995968342 0.079781316 -0.016227376 0.037665330
1520503357.600585 -23.010311127 -56.832969666 -8.487740517 -0.995504320 0.089491621 -0.021158131 0.022687821
1520503357.850592 -23.016633987 -57.166412354 -8.447188377 -0.994207144 0.090508677 -0.026316565 0.051651336
1520503358.100595 -23.035787582 -57.503669739 -8.480457306 -0.991747022 0.106966451 -0.026819464 0.065396935
1520503358.350600 -23.053529739 -57.843326569 -8.467352867 -0.994610310 0.095140815 -0.013171662 0.039053451
1520503358.600608 -23.050947189 -58.183910370 -8.493417740 -0.995371878 0.091561928 -0.026266608 0.012704943
1520503358.850611 -23.053613663 -58.530673981 -8.465723038 -0.994099081 0.099319682 -0.026446018 0.034688979
1520503359.100619 -23.074476242 -58.869800568 -8.480565071 -0.992784441 0.104794070 -0.027603995 0.051335454
1520503359.350623 -23.092071533 -59.224357605 -8.488073349 -0.993226945 0.106289573 -0.022931928 0.040949721
1520503359.700631 -23.079338074 -59.714435577 -8.502776146 -0.994506717 0.102142677 -0.022304552 0.005088219
1520503359.950636 -23.075828552 -60.055000305 -8.463166237 -0.994078636 0.102441415 -0.027095109 0.024070196
1520503360.200644 -23.089178085 -60.397006989 -8.490536690 -0.993452251 0.107705928 -0.022559028 0.030711401
1520503360.500654 -23.098100662 -60.820598602 -8.469937325 -0.994347990 0.105210252 -0.014188691 -0.001301913
1520503360.750660 -23.087621689 -61.178165436 -8.499452591 -0.993197083 0.112237848 -0.019767204 -0.023906920
1520503361.000667 -23.094362259 -61.523254395 -8.466030121 -0.993539989 0.110949285 -0.020848021 0.011575126
1520503361.250674 -23.114301682 -61.868129730 -8.506218910 -0.992864132 0.112835623 -0.025609670 0.028863482
1520503361.500681 -23.121070862 -62.220928192 -8.492803574 -0.994324565 0.104216844 -0.020971378 0.004227293
1520503361.750691 -23.107570648 -62.575897217 -8.500720978 -0.993358731 0.110152684 -0.023376619 -0.023629578
1520503362.000699 -23.100322723 -62.919879913 -8.487561226 -0.994982243 0.096669354 -0.017441563 0.019005742
1520503362.250707 -23.113035202 -63.254447937 -8.514724731 -0.995062113 0.083798289 -0.011016788 0.052037884
1520503362.500719 -23.113920212 -63.609371185 -8.517721176 -0.995371759 0.090394281 -0.005622163 0.032132331
1520503362.750726 -23.077661514 -63.950035095 -8.493246078 -0.994279444 0.103594661 -0.007729343 -0.024836974
1520503363.000734 -23.059186935 -64.305984497 -8.491765976 -0.994205415 0.105384715 -0.014785656 -0.015202298
1520503363.250741 -23.093204498 -64.636734009 -8.494947433 -0.996127725 0.083310865 -0.018083354 0.021491673
1520503363.500748 -23.118099213 -64.997184753 -8.525223732 -0.996249437 0.081704102 -0.024378328 0.014739117
1520503363.750763 -23.106376648 -65.344718933 -8.483569145 -0.994788229 0.094000183 -0.016137935 -0.036054060
1520503364.000771 -23.086181641 -65.700332642 -8.513588905 -0.994509757 0.098276518 -0.013801333 -0.033189390
1520503364.200775 -23.096353531 -65.965072632 -8.488461494 -0.997015953 0.074641027 -0.019532001 -0.002558892
1520503364.450789 -23.106245041 -66.314079285 -8.539287567 -0.996410966 0.079424523 -0.025704386 0.014013140
1520503364.700797 -23.069950104 -66.668601990 -8.498379707 -0.996282637 0.073014699 0.012324912 -0.044020940
1520503364.950806 -23.011938095 -67.021316528 -8.519111633 -0.991175115 0.094880171 -0.003249469 -0.092515364
1520503365.200813 -22.996295929 -67.365547180 -8.499186516 -0.996022403 0.078909598 -0.013670997 -0.039062008
1520503365.450819 -23.020105362 -67.712974548 -8.537459373 -0.996584773 0.078171432 -0.020714810 0.016702089
1520503365.700830 -23.032270432 -68.083450317 -8.508356094 -0.994923830 0.095856287 -0.010763285 0.028676683
1520503365.950838 -22.988517761 -68.445037842 -8.507986069 -0.995078087 0.095045857 -0.024735995 -0.013196424
1520503366.200839 -22.935298920 -68.805107117 -8.513743401 -0.995140731 0.094616219 -0.027242266 -0.000796970
1520503366.450848 -22.905391693 -69.143974304 -8.513102531 -0.996686220 0.077628002 -0.022602230 0.008925942
1520503366.700846 -22.860113144 -69.510643005 -8.527743340 -0.994019330 0.101050921 -0.025159495 -0.032883745
1520503366.950844 -22.780553818 -69.859085083 -8.504656792 -0.992708385 0.088014886 -0.022367639 -0.079266816
1520503367.250852 -22.683311462 -70.283325195 -8.497495651 -0.989901721 0.118316330 -0.021091586 -0.075173490
1520503367.450850 -22.650438309 -70.551696777 -8.489191055 -0.993886948 0.092670478 -0.011149847 -0.058963425
1520503367.650857 -22.615377426 -70.835289001 -8.539774895 -0.993813992 0.095513262 -0.016787935 -0.054121744
1520503368.000865 -22.524902344 -71.313751221 -8.511612892 -0.991837859 0.076403931 -0.018309405 -0.100423925
1520503368.300874 -22.438955307 -71.745040894 -8.528548241 -0.990837276 0.092951812 -0.021332910 -0.095637344
1520503368.550879 -22.399297714 -72.087829590 -8.527597427 -0.994993389 0.079099342 -0.006361359 -0.060754500
1520503368.750885 -22.371774673 -72.371543884 -8.552003860 -0.993188560 0.097591132 -0.010911728 -0.062717073
1520503368.950891 -22.329513550 -72.642135620 -8.512970924 -0.992617488 0.080189139 0.003316050 -0.090935513
1520503369.200899 -22.257768631 -72.987510681 -8.538008690 -0.989136159 0.098279431 -0.007940338 -0.109031655
1520503369.400905 -22.204687119 -73.261833191 -8.512442589 -0.991995811 0.092741445 -0.011469724 -0.084922858
1520503369.650914 -22.166452408 -73.596443176 -8.528323174 -0.994482100 0.090948179 -0.016270598 -0.049689792
1520503369.900921 -22.121820450 -73.948417664 -8.537438393 -0.993513346 0.097967401 -0.017173141 -0.055124462
1520503370.200929 -22.037809372 -74.360359192 -8.532228470 -0.991387129 0.099684164 -0.004729996 -0.084807947
1520503370.450936 -21.973390579 -74.707077026 -8.523572922 -0.994037151 0.095248669 -0.009002177 -0.052314918
1520503370.700943 -21.939809799 -75.045867920 -8.530898094 -0.995109379 0.093442999 -0.014064565 -0.028774662
1520503370.950951 -21.906946182 -75.412231445 -8.548239708 -0.994362533 0.102159709 -0.017313847 -0.022513879
1520503371.200959 -21.860252380 -75.758262634 -8.527711868 -0.993436217 0.103533998 -0.022944909 -0.042880420
1520503371.450960 -21.803098679 -76.107116699 -8.540012360 -0.993584454 0.107624672 -0.014215888 -0.031698018
1520503371.700969 -21.761945724 -76.436027527 -8.520820618 -0.994575977 0.102325983 -0.012194951 -0.014118253
1520503371.950975 -21.717496872 -76.788330078 -8.556854248 -0.991457582 0.127370536 -0.018969025 -0.020707652
1520503372.200983 -21.651729584 -77.126464844 -8.527110100 -0.992702842 0.104656436 -0.010101810 -0.059043206
1520503372.450984 -21.575992584 -77.468650818 -8.563707352 -0.990385354 0.110725448 -0.033467889 -0.075873114
1520503372.750999 -21.516536713 -77.867904663 -8.535592079 -0.995916128 0.080428541 -0.001105168 -0.041001614
1520503373.051013 -21.448223114 -78.291625977 -8.567130089 -0.991153002 0.120497823 -0.000515634 -0.055640008
1520503373.301021 -21.352375031 -78.621292114 -8.537668228 -0.989085555 0.105789825 0.009379971 -0.102128588
1520503373.551106 -21.236476898 -78.954933167 -8.561148643 -0.988253713 0.108893357 0.005567689 -0.107078850
1520503373.751019 -21.147186279 -79.199890137 -8.537128448 -0.989066899 0.100566126 -0.001840269 -0.107841723
1520503374.001026 -21.017738342 -79.512100220 -8.590291023 -0.983081698 0.114202261 -0.004717241 -0.143129349
1520503374.251035 -20.854827881 -79.800918579 -8.565976143 -0.970998645 0.096261352 0.002300024 -0.218838170
1520503374.501043 -20.644075394 -80.065498352 -8.579853058 -0.948402047 0.111757040 0.010645871 -0.296530992
1520503374.751062 -20.414035797 -80.290611267 -8.548153877 -0.934876740 0.100528233 0.013262041 -0.340181887
1520503375.001069 -20.180917740 -80.495887756 -8.570528030 -0.910165906 0.109512061 0.020861635 -0.398961127
1520503375.251066 -19.918983459 -80.671661377 -8.564018250 -0.863423049 0.100729272 0.038134474 -0.492848903
1520503375.501074 -19.640695572 -80.763648987 -8.563055038 -0.785319448 0.101774789 0.027035901 -0.610069036
1520503375.751081 -19.356048584 -80.797370911 -8.561342239 -0.731085956 0.099108420 0.028502878 -0.674446762
1520503376.001104 -19.090406418 -80.776962280 -8.548891068 -0.666471362 0.104878783 0.034658700 -0.737302721
1520503376.251112 -18.812713623 -80.690124512 -8.563206673 -0.564535260 0.097801305 0.064200349 -0.817075968
1520503376.501123 -18.587638855 -80.518951416 -8.541988373 -0.426917881 0.065164872 0.071179755 -0.899126291
1520503376.751166 -18.396781921 -80.285125732 -8.540114403 -0.332760900 0.066046841 0.092739694 -0.936112940
1520503377.001144 -18.252595901 -80.050369263 -8.508065224 -0.239450723 0.048559036 0.091653794 -0.965352237
1520503377.251159 -18.120679855 -79.808197021 -8.502484322 -0.165579736 0.029556869 0.100133203 -0.980654418
1520503377.501167 -18.044523239 -79.592704773 -8.384167671 -0.071280867 0.017144887 0.104250647 -0.991845191
1520503377.751180 -18.018482208 -79.401321411 -8.269903183 -0.023281313 0.005783354 0.122041799 -0.992235005
1520503378.001185 -17.996057510 -79.246292114 -8.154249191 -0.035914388 0.020198161 0.119985521 -0.991920233
1520503378.251194 -17.957071304 -79.099632263 -8.116287231 -0.061328892 0.003333490 0.096826009 -0.993404448
1520503378.501202 -17.929922104 -78.956878662 -8.037244797 -0.041649722 -0.001194425 0.088435821 -0.995210052
1520503378.851216 -17.949245453 -78.759979248 -7.927807808 -0.006427241 -0.007081531 0.100617819 -0.994879186
1520503379.101223 -17.966497421 -78.629280090 -7.813577652 -0.014237013 0.005780298 0.105157465 -0.994336903
1520503379.401236 -17.959508896 -78.469345093 -7.753708839 -0.027070425 -0.000509007 0.101872116 -0.994428992
1520503379.651244 -17.947420120 -78.336402893 -7.658463478 -0.009893036 -0.003067018 0.106375173 -0.994272172
1520503379.901251 -17.959405899 -78.204872131 -7.585463047 0.020232175 -0.006321968 0.113732480 -0.993285298
1520503380.151257 -17.973239899 -78.067001343 -7.499969959 0.020928970 0.009224009 0.104145057 -0.994299114
1520503380.401263 -17.965087891 -77.946426392 -7.420257568 -0.008551041 0.012105735 0.097932115 -0.995082796
1520503380.751274 -17.961288452 -77.749504089 -7.362427711 0.004960591 0.000806231 0.086508602 -0.996238470
1520503380.951285 -17.966402054 -77.651733398 -7.274287701 0.024629487 -0.002129407 0.089556910 -0.995674908
1520503381.201295 -17.980432510 -77.514678955 -7.234384537 0.040091213 0.012492516 0.089195788 -0.995128512
1520503381.451302 -17.984365463 -77.380844116 -7.122114658 0.013318734 0.015680425 0.086784437 -0.996014714
1520503381.701309 -17.970672607 -77.228004456 -7.094390392 -0.006740161 0.013642025 0.078929648 -0.996764064
1520503381.951318 -17.944030762 -77.004280090 -7.115999699 -0.019649286 -0.002183017 0.085814185 -0.996115029
1520503382.301328 -17.925485611 -76.665260315 -7.052607536 0.009428705 -0.008183609 0.105814487 -0.994307518
1520503382.551331 -17.935684204 -76.423942566 -7.017085552 0.019473730 0.010664371 0.121527359 -0.992339790
1520503382.801338 -17.923706055 -76.226516724 -6.898983955 -0.000217741 0.014008083 0.122238375 -0.992401898
1520503383.101348 -17.896123886 -76.019065857 -6.839492798 0.000425452 0.008217596 0.123831771 -0.992269158
1520503383.351353 -17.878213882 -75.883628845 -6.734938145 0.028696332 0.005717919 0.111830235 -0.993296444
1520503383.601361 -17.877731323 -75.742355347 -6.691465378 0.055107839 0.008781979 0.106942765 -0.992698014
1520503383.901370 -17.867486954 -75.580322266 -6.568159580 0.017113898 0.010713032 0.099475421 -0.994835138
1520503384.151383 -17.841417313 -75.449272156 -6.527040958 -0.004651904 0.011227815 0.089661427 -0.995898187
1520503384.451392 -17.803663254 -75.280761719 -6.426554203 -0.000578033 0.010665379 0.088499822 -0.996018946
1520503384.751402 -17.804853439 -75.119544983 -6.332993031 0.034293152 -0.001013367 0.101066589 -0.994287968
1520503385.001412 -17.819932938 -74.980545044 -6.207567215 0.027305039 0.015295333 0.098614983 -0.994633436
1520503385.251420 -17.807437897 -74.850265503 -6.133149147 0.006691992 0.013163812 0.106909364 -0.994159162
1520503385.501426 -17.778013229 -74.714439392 -6.095690250 0.003584690 0.003152648 0.095439203 -0.995423853
1520503385.751434 -17.754661560 -74.596572876 -6.000618458 0.006668010 -0.012744617 0.084053025 -0.996357501
1520503386.051444 -17.750707626 -74.427246094 -5.928952217 0.021360232 -0.000984777 0.089523628 -0.995755196
1520503386.351454 -17.724082947 -74.272247314 -5.807612419 -0.007966586 0.006894830 0.097430483 -0.995186567
1520503386.601459 -17.687719345 -74.128723145 -5.778337479 -0.021596622 0.001831285 0.100863613 -0.994664133
1520503386.851467 -17.660156250 -74.001892090 -5.660314083 -0.002433206 -0.005414993 0.098048702 -0.995163918
1520503387.151474 -17.662607193 -73.845855713 -5.577013016 0.019512793 -0.001036031 0.103459716 -0.994441748
1520503387.401479 -17.660930634 -73.731643677 -5.475704670 -0.007051345 0.002716061 0.093263976 -0.995612800
1520503387.651487 -17.647346497 -73.616210938 -5.438112736 -0.012670603 0.013545832 0.099106386 -0.994903982
1520503387.901491 -17.623659134 -73.479995728 -5.373775959 0.000151992 0.012724536 0.093395375 -0.995547771
1520503388.151499 -17.615566254 -73.352050781 -5.273481369 0.020003213 -0.001238747 0.097703144 -0.995013773
1520503388.451508 -17.636463165 -73.186180115 -5.191866875 0.032613177 0.009040477 0.097023800 -0.994706511
1520503388.701513 -17.642965317 -73.066802979 -5.089188576 0.015266484 0.004281673 0.100936256 -0.994766533
1520503388.901520 -17.642671585 -72.956062317 -5.072894573 0.005227487 0.002626948 0.101926714 -0.994774699
1520503389.151525 -17.640045166 -72.818550110 -4.976412296 0.022061102 0.006411009 0.088735983 -0.995790243
1520503389.451536 -17.662910461 -72.662223816 -4.885096550 0.057193536 0.006673543 0.105750717 -0.992724180
1520503389.651584 -17.685548782 -72.556190491 -4.814569950 0.046226244 0.013531827 0.094612092 -0.994348347
1520503389.901548 -17.693058014 -72.438049316 -4.717035294 0.016363345 0.010845179 0.092361771 -0.995531976
1520503390.151556 -17.686136246 -72.293174744 -4.676069736 0.009448078 0.014168658 0.110821836 -0.993694425
1520503390.451560 -17.680797577 -72.128768921 -4.534620762 0.025918342 0.013578001 0.114895716 -0.992946625
1520503390.701567 -17.692873001 -71.989936829 -4.481655598 0.030796673 0.006315576 0.111696877 -0.993244946
1520503390.951574 -17.698278427 -71.866386414 -4.370687962 -0.003523372 0.007570348 0.105581798 -0.994375587
1520503391.201580 -17.692594528 -71.738159180 -4.331915379 -0.019704223 0.010945150 0.098264299 -0.994905055
1520503391.401586 -17.686290741 -71.623451233 -4.281664371 -0.012125226 0.006297275 0.099313185 -0.994962454
1520503391.701593 -17.703002930 -71.470436096 -4.168700695 0.019174788 0.004204971 0.095167309 -0.995267689
1520503392.001602 -17.736272812 -71.306602478 -4.080177307 0.010095354 0.009930325 0.088132247 -0.996008158
1520503392.351614 -17.741580963 -71.133552551 -3.986117601 -0.024846394 0.010651639 0.086766131 -0.995861888
1520503392.601622 -17.734563828 -70.982025146 -3.942140102 -0.026663775 0.007549160 0.074768260 -0.996815860
1520503392.851629 -17.738636017 -70.836250305 -3.836330414 0.004879941 0.009952252 0.075628296 -0.997074425
1520503393.101640 -17.764730453 -70.656867981 -3.848514318 0.019617217 -0.002428787 0.065126792 -0.997681260
1520503393.301646 -17.793121338 -70.462562561 -3.856423378 0.019116882 0.002219253 0.072153948 -0.997207820
1520503393.501655 -17.812360764 -70.262542725 -3.801011086 0.019167822 0.004319168 0.093134567 -0.995459676
1520503393.801665 -17.794080734 -69.967689514 -3.816344023 -0.011660676 -0.017953273 0.102509707 -0.994501591
1520503394.151671 -17.744928360 -69.559013367 -3.797170162 -0.001459176 -0.006870115 0.105232969 -0.994422853
1520503394.401679 -17.726737976 -69.266197205 -3.808769464 0.011845341 0.005522721 0.113314614 -0.993473172
1520503394.651686 -17.710855484 -68.941055298 -3.821450233 -0.004214551 0.014916784 0.106193215 -0.994224727
1520503394.901693 -17.683387756 -68.637786865 -3.777319431 -0.021245506 0.003079394 0.110958256 -0.993593156
1520503395.151700 -17.650989532 -68.328010559 -3.786492109 -0.030889552 -0.008731893 0.122217879 -0.991984129
1520503395.501712 -17.615449905 -67.973274231 -3.629956722 -0.029105883 -0.010278423 0.129362524 -0.991116822
1520503395.751716 -17.613449097 -67.784072876 -3.565925598 -0.021119518 -0.009981746 0.132905781 -0.990853369
1520503396.001721 -17.608764648 -67.637786865 -3.466089964 -0.047815468 0.012191116 0.112731956 -0.992399454
1520503396.251728 -17.588012695 -67.507637024 -3.442262411 -0.049649864 0.009895407 0.111691512 -0.992452562
1520503396.501736 -17.556568146 -67.356987000 -3.411157846 -0.033376284 0.000860728 0.109854542 -0.993386805
1520503396.751746 -17.538682938 -67.222381592 -3.287481546 -0.010111887 -0.001921186 0.107201837 -0.994184017
1520503397.001753 -17.545122147 -67.079681396 -3.236227036 0.009045640 0.001978376 0.107360236 -0.994177103
1520503397.251764 -17.550998688 -66.952270508 -3.111292362 -0.020764481 0.016940832 0.114439964 -0.993068635
1520503397.501772 -17.546979904 -66.830795288 -3.076154470 -0.047585905 0.010686548 0.093536735 -0.994420588
1520503397.751779 -17.544641495 -66.691406250 -3.015033245 -0.030360535 0.008788921 0.091160499 -0.995334566
1520503398.101791 -17.582725525 -66.505569458 -2.877840281 0.028828733 -0.003506580 0.110344537 -0.993469059
1520503398.401802 -17.622444153 -66.339492798 -2.784677982 0.017818587 -0.000393340 0.087581925 -0.995997906
1520503398.651809 -17.629030228 -66.203178406 -2.728042126 0.009465406 -0.000343772 0.089119092 -0.995975971
1520503398.901819 -17.622489929 -66.010162354 -2.752486706 0.004783091 0.011751759 0.092044875 -0.995674014
1520503399.151825 -17.612146378 -65.770721436 -2.716694832 0.019647297 0.001649458 0.111846909 -0.993529856
1520503399.401833 -17.617462158 -65.522842407 -2.689980030 0.036312863 -0.007912064 0.132207423 -0.990525126
1520503399.651841 -17.630468369 -65.287170410 -2.624172688 0.024303343 0.012577840 0.134932563 -0.990476847
1520503399.951849 -17.619922638 -65.056510925 -2.511623383 -0.014216991 0.012521196 0.123796023 -0.992126822
1520503400.201858 -17.606357574 -64.879318237 -2.432404280 -0.009207823 0.003206963 0.132093892 -0.991189301
1520503400.451866 -17.615997314 -64.744155884 -2.341006041 0.023577733 0.008823079 0.127237499 -0.991552770
1520503400.701873 -17.634639740 -64.601623535 -2.290128231 0.030461153 0.023511771 0.123061053 -0.991652787
1520503400.951952 -17.636394501 -64.482032776 -2.194748640 0.005297891 0.029239656 0.113044374 -0.993145466
1520503401.201889 -17.622791290 -64.359558105 -2.174606562 -0.018101228 0.026570067 0.102576256 -0.994205475
1520503401.451898 -17.608779907 -64.230995178 -2.079635143 -0.009287804 0.016861973 0.103333011 -0.994460583
1520503401.751907 -17.618297577 -64.085189819 -1.995579243 0.031015879 0.014222924 0.115993768 -0.992663682
1520503402.001916 -17.626375198 -63.948581696 -1.921111107 0.019969171 0.021940459 0.095135100 -0.995022237
1520503402.251923 -17.610248566 -63.834102631 -1.824767232 -0.016348382 0.023348050 0.099821426 -0.994597077
1520503402.501933 -17.592100143 -63.703620911 -1.798931837 -0.034454651 0.026257372 0.100793578 -0.993963838
1520503402.751941 -17.585084915 -63.572399139 -1.674630284 -0.024413679 0.012559192 0.112640746 -0.993256450
1520503403.001946 -17.601314545 -63.443119049 -1.606688619 0.010306525 0.017180415 0.136384964 -0.990453362
1520503403.251955 -17.616308212 -63.327198029 -1.504034400 -0.021542324 0.022516258 0.134137526 -0.990472674
1520503403.501961 -17.616460800 -63.219062805 -1.442357540 -0.047994483 0.006023931 0.127102554 -0.990709424
1520503403.751969 -17.607025146 -63.090251923 -1.409487844 -0.042091679 0.019215085 0.124772169 -0.991105974
1520503404.001977 -17.606266022 -62.976272583 -1.286755562 -0.003680315 0.022844741 0.122225203 -0.992232680
1520503404.251985 -17.630741119 -62.846710205 -1.244065046 0.013735928 0.006054150 0.132230431 -0.991105378
1520503404.501992 -17.660705566 -62.725627899 -1.134362698 0.000175268 0.014542352 0.118511051 -0.992846251
1520503404.752000 -17.664804459 -62.618412018 -1.087026596 -0.014848086 0.013863624 0.124328494 -0.992033184
1520503405.002008 -17.652080536 -62.488788605 -1.069361806 -0.011340283 0.016989058 0.113123164 -0.993371010
1520503405.252016 -17.641931534 -62.363986969 -0.932602942 0.008627435 0.007937477 0.124866992 -0.992104232
1520503405.502023 -17.646928787 -62.237060547 -0.895055294 0.032939814 0.016787540 0.135827705 -0.990042448
1520503405.752028 -17.648513794 -62.118267059 -0.798520803 0.020292774 0.015612842 0.107899301 -0.993832111
1520503406.102038 -17.623046875 -61.962757111 -0.728565753 -0.015904911 0.015569374 0.125320747 -0.991866648
1520503406.352044 -17.605260849 -61.836521149 -0.661573350 0.008007700 0.008430115 0.115974247 -0.993184209
1520503406.602051 -17.603858948 -61.721080780 -0.562839270 0.041168779 0.001191676 0.115800947 -0.992418230
1520503406.852060 -17.614900589 -61.588020325 -0.525444150 0.043196619 0.008938644 0.122686557 -0.991464674
1520503407.102067 -17.616285324 -61.471393585 -0.403955609 0.015014412 0.023787666 0.133542269 -0.990643859
1520503407.452075 -17.607543945 -61.309143066 -0.354157567 -0.008733079 0.008957117 0.136658564 -0.990539253
1520503407.702083 -17.599842072 -61.193161011 -0.266181529 0.008605805 0.002721013 0.106998548 -0.994218230
1520503408.002093 -17.613496780 -61.049007416 -0.178923935 0.027989563 0.002996741 0.127354056 -0.991457820
1520503408.252101 -17.639049530 -60.916210175 -0.096491680 0.008560291 0.018561546 0.137046471 -0.990353763
1520503408.502110 -17.655858994 -60.803066254 0.003110772 -0.011407540 0.013468504 0.128359303 -0.991570711
1520503408.852120 -17.642232895 -60.589015961 -0.036732335 -0.039638925 0.007753225 0.104364350 -0.993718624
1520503409.152130 -17.600368500 -60.313987732 -0.004773572 -0.052783240 -0.001566218 0.126861960 -0.990513802
1520503409.452139 -17.584051132 -60.005462646 -0.018447388 -0.050742093 0.011381147 0.131546512 -0.989945114
1520503409.702147 -17.582180023 -59.723022461 -0.010100016 -0.057576656 0.026245002 0.114244670 -0.991435468
1520503409.952157 -17.563207626 -59.454467773 -0.009580497 -0.075629383 0.019581111 0.112754673 -0.990546882
1520503410.202165 -17.537145615 -59.140705109 -0.045676392 -0.063848101 0.010849189 0.118329749 -0.990860164
1520503410.452173 -17.531270981 -58.821411133 0.002742026 -0.036044233 0.002536079 0.120353229 -0.992073298
1520503410.702182 -17.539388657 -58.498085022 -0.005526457 -0.035168841 0.012250947 0.129637539 -0.990861893
1520503410.952190 -17.547178268 -58.204738617 0.084120870 -0.038466450 0.011549801 0.102227785 -0.993949950
1520503411.302203 -17.521532059 -57.917724609 0.205644980 -0.028120963 0.004524882 0.146390021 -0.988816857
1520503411.552210 -17.478578568 -57.752025604 0.299886405 -0.011000697 0.008565114 0.145415559 -0.989272416
1520503411.802218 -17.448839188 -57.609756470 0.374365419 -0.004533367 0.001961712 0.150783986 -0.988554418
1520503412.052225 -17.441856384 -57.465629578 0.413508832 -0.010185137 0.008056006 0.123455353 -0.992265165
1520503412.302233 -17.426469803 -57.350597382 0.511093974 -0.027953133 0.025222896 0.103841275 -0.993880987
1520503412.552241 -17.397762299 -57.222682953 0.539457858 -0.055283714 0.023165643 0.097232364 -0.993455112
1520503412.802251 -17.379474640 -57.088031769 0.646632433 -0.036131833 0.016288213 0.109558627 -0.993189871
1520503413.102259 -17.378795624 -56.938446045 0.723694503 -0.012158948 0.004127127 0.136835426 -0.990510643
1520503413.352267 -17.384155273 -56.810752869 0.805494368 -0.020981053 0.019845894 0.121823467 -0.992131531
1520503413.652277 -17.371471405 -56.674335480 0.881380439 -0.053031925 0.024853084 0.109814890 -0.992225111
1520503413.902284 -17.347665787 -56.536415100 0.910886526 -0.060752921 0.022125343 0.098224655 -0.993061662
1520503414.102290 -17.325206757 -56.415168762 1.007137060 -0.067030638 0.014957831 0.114692815 -0.991024077
1520503414.352297 -17.318239212 -56.254119873 1.058050752 -0.039044615 0.015635999 0.126376569 -0.991090357
1520503414.602304 -17.325078964 -56.041255951 1.050124764 -0.013931692 0.009591392 0.117949158 -0.992875636
1520503414.852312 -17.321680069 -55.815555573 1.101023674 -0.026047163 0.031581957 0.142505109 -0.988947153
1520503415.102320 -17.317054749 -55.593643188 1.102344275 -0.029590102 0.019988079 0.140861839 -0.989385128
1520503415.352326 -17.319452286 -55.387409210 1.177331090 0.004811554 -0.002055488 0.131570891 -0.991292953
1520503415.652336 -17.336565018 -55.194778442 1.270721674 0.042782594 -0.006618743 0.132080778 -0.990293205
1520503415.902343 -17.356706619 -55.034652710 1.344846606 0.047319092 0.003857141 0.151472613 -0.987320662
1520503416.152352 -17.358793259 -54.911331177 1.454176784 0.025135366 0.014215713 0.155326009 -0.987441182
1520503416.402360 -17.347282410 -54.780197144 1.464930058 -0.004143678 0.007552953 0.127297819 -0.991827190
1520503416.652368 -17.341100693 -54.648437500 1.554534316 0.016373122 0.006501453 0.120833762 -0.992516458
1520503416.852374 -17.346410751 -54.554283142 1.628057599 0.032999866 -0.001721762 0.124817684 -0.991629303
1520503417.102382 -17.360982895 -54.426494598 1.679201961 0.037154797 0.001914079 0.119701579 -0.992112637
1520503417.352391 -17.356555939 -54.312667847 1.791542292 -0.008793622 0.003690719 0.120419808 -0.992677212
1520503417.602399 -17.329275131 -54.189888000 1.815537572 -0.028714087 0.017681237 0.117305323 -0.992523253
1520503417.802405 -17.307739258 -54.089881897 1.872910500 -0.028502773 0.015666174 0.117622048 -0.992525697
1520503418.002410 -17.298698425 -54.002040863 1.965329647 -0.026392780 0.013892807 0.119742557 -0.992356896
1520503418.252419 -17.300712585 -53.889831543 1.995746136 -0.001099541 0.012613282 0.119527921 -0.992750108
1520503418.502426 -17.311599731 -53.773170471 2.086700678 -0.011139270 0.046990149 0.128568023 -0.990524232
1520503418.752434 -17.302591324 -53.670616150 2.173156977 -0.040592309 0.022468714 0.135442853 -0.989698291
1520503418.952439 -17.288776398 -53.577896118 2.169601917 -0.042560007 0.019332897 0.115525007 -0.992204010
1520503419.152445 -17.270868301 -53.473243713 2.239278793 -0.019818911 0.017485874 0.099031314 -0.994733274
1520503419.352452 -17.262454987 -53.382263184 2.333995819 0.005899130 0.010216564 0.112626933 -0.993567348
1520503419.602460 -17.270393372 -53.259349823 2.368097305 0.025855033 0.019866304 0.114928849 -0.992838502
1520503419.802469 -17.277662277 -53.166553497 2.453328371 0.014096037 0.022883108 0.103198290 -0.994297624
1520503420.002475 -17.275514603 -53.089107513 2.519202948 -0.014196827 0.016608419 0.097124957 -0.995032370
1520503420.202482 -17.271545410 -53.001220703 2.521718502 -0.019325128 0.015419240 0.092600465 -0.995396435
1520503420.402488 -17.266529083 -52.901447296 2.582999706 -0.003381545 0.014360487 0.097484984 -0.995127678
1520503420.652495 -17.265592575 -52.791477203 2.706043959 0.020539759 0.006640536 0.099490084 -0.994804442
1520503420.852501 -17.277444839 -52.689983368 2.737078905 0.035782497 0.012868050 0.110251121 -0.993176162
1520503421.102506 -17.297286987 -52.566036224 2.842705250 0.023976969 0.019909982 0.106998838 -0.993770599
1520503421.302510 -17.301633835 -52.489143372 2.913544655 -0.000629189 0.016848834 0.115082316 -0.993212819
1520503421.502516 -17.299749374 -52.399337769 2.897798300 -0.009805774 0.016357433 0.098315574 -0.994972527
1520503421.702520 -17.291610718 -52.297790527 2.952220440 0.002518173 0.008966226 0.095712826 -0.995365500
1520503421.902527 -17.292072296 -52.201381683 3.052756786 0.022499109 0.009074540 0.102045909 -0.994483888
1520503422.102532 -17.307857513 -52.102863312 3.076873779 0.038608875 0.006692905 0.102520309 -0.993958890
1520503422.302538 -17.331295013 -51.999965668 3.133594513 0.035077643 0.010246326 0.105655119 -0.993731201
1520503422.502544 -17.341215134 -51.913116455 3.232885122 0.008359240 0.004655191 0.099411637 -0.995000422
1520503422.702550 -17.347452164 -51.829174042 3.254947186 -0.001204711 0.007933481 0.082963124 -0.996520340
1520503422.902558 -17.348192215 -51.723396301 3.280859470 0.000153219 0.010171579 0.095451206 -0.995382130
1520503423.102563 -17.348623276 -51.624225616 3.387649059 0.009536548 0.005920975 0.103672475 -0.994548142
1520503423.302569 -17.363710403 -51.529537201 3.450847387 0.034866903 0.005547951 0.116839841 -0.992523074
1520503423.502574 -17.393423080 -51.425315857 3.472279310 0.046831410 0.010085843 0.120727986 -0.991529107
1520503423.802583 -17.446491241 -51.289829254 3.605853319 0.046217084 0.016834160 0.117541455 -0.991849124
1520503424.002589 -17.481685638 -51.192047119 3.624163628 0.057968691 0.011505355 0.111677259 -0.991985679
1520503424.202595 -17.514404297 -51.073268890 3.618790388 0.081041075 0.005118884 0.105380580 -0.991111040
1520503424.402601 -17.554889679 -50.958614349 3.707492352 0.118803203 -0.000102326 0.097468615 -0.988122284
1520503424.652610 -17.637325287 -50.822776794 3.781811237 0.177724421 0.008068264 0.108354621 -0.978063524
1520503424.852617 -17.741849899 -50.711044312 3.758873701 0.224962756 0.015953541 0.108851098 -0.968136787
1520503425.052627 -17.896331787 -50.605182648 3.767430544 0.282592505 0.017358100 0.097823918 -0.954081059
1520503425.252634 -18.077901840 -50.532871246 3.778108358 0.364339828 0.004026063 0.108893663 -0.924868882
1520503425.502645 -18.322128296 -50.475955963 3.739091396 0.474677920 -0.007191261 0.090485521 -0.875466526
1520503425.752653 -18.595611572 -50.420581818 3.736183882 0.583655894 -0.036593854 0.084287226 -0.806785166
1520503426.002615 -18.877643585 -50.399589539 3.751170397 0.668924391 -0.034137398 0.079176359 -0.738312900
1520503426.202622 -19.116933823 -50.387699127 3.735491753 0.681538224 -0.044062082 0.084714308 -0.725525856
1520503426.502632 -19.452630997 -50.362339020 3.765351295 0.672514141 -0.044483304 0.078029148 -0.734613836
1520503426.702638 -19.692527771 -50.334018707 3.708390951 0.654021323 -0.035164680 0.064649306 -0.752887785
1520503426.902644 -19.962545395 -50.313796997 3.714496851 0.647839904 -0.041871540 0.066501252 -0.757712245
1520503427.302655 -20.504106522 -50.336154938 3.704077244 0.672090054 -0.044001378 0.077922493 -0.735042155
1520503427.552662 -20.829080582 -50.338119507 3.744799614 0.654867649 -0.046667229 0.075697996 -0.750493467
1520503427.752669 -21.088537216 -50.324867249 3.708745480 0.640868306 -0.047572825 0.070109300 -0.762960970
1520503428.002676 -21.436655045 -50.307380676 3.713040590 0.648696542 -0.059128433 0.068012498 -0.755692422
1520503428.202682 -21.707027435 -50.316287994 3.728125572 0.665443003 -0.047341630 0.066319011 -0.741988003
1520503428.402688 -21.986444473 -50.329425812 3.695087910 0.668147624 -0.047340021 0.088549338 -0.737222314
1520503428.652701 -22.307973862 -50.330604553 3.739644289 0.652407527 -0.039728388 0.083077565 -0.752252817
1520503428.852707 -22.567762375 -50.322151184 3.701645374 0.639633596 -0.038322344 0.073932275 -0.764155924
1520503429.102715 -22.915924072 -50.321502686 3.687285423 0.662076890 -0.038103826 0.049248904 -0.746844590
1520503429.302721 -23.181665421 -50.337444305 3.700989723 0.687457263 -0.016650343 0.046742190 -0.724527776
1520503429.502730 -23.461069107 -50.348999023 3.667673111 0.682348549 -0.017381113 0.061098613 -0.728261888
1520503429.702736 -23.723564148 -50.338615417 3.699922562 0.662021041 -0.010002396 0.051660661 -0.747635841
1520503429.902742 -23.988203049 -50.312065125 3.686016560 0.645058751 -0.013950665 0.050070647 -0.762363195
1520503430.152750 -24.346996307 -50.291248322 3.676907539 0.653171837 -0.025618033 0.056134306 -0.754691482
1520503430.402765 -24.694820404 -50.316154480 3.708981991 0.698170185 -0.022366786 0.061819520 -0.712907076
1520503430.652772 -25.046819687 -50.344970703 3.699388981 0.701712966 -0.038193364 0.069599472 -0.708022654
1520503430.902775 -25.364395142 -50.350780487 3.734770536 0.687478840 -0.035627540 0.063363038 -0.722557068
1520503431.252846 -25.850509644 -50.364555359 3.729760170 0.694903612 -0.052342691 0.070942000 -0.713678181
1520503431.552864 -26.253606796 -50.422550201 3.734703541 0.742654324 -0.053989969 0.068157084 -0.664006233
1520503431.852873 -26.659900665 -50.458255768 3.763559580 0.728542328 -0.060594708 0.071665600 -0.678541362
1520503432.102884 -26.997621536 -50.464557648 3.731328726 0.706658244 -0.059337471 0.058266439 -0.702650905
1520503432.352906 -27.349180222 -50.482639313 3.752824783 0.716091812 -0.070191264 0.062323421 -0.691665828
1520503432.602914 -27.683816910 -50.529830933 3.754839897 0.748606682 -0.065741234 0.066697866 -0.656366944
1520503432.852930 -28.032094955 -50.563072205 3.752896309 0.741513729 -0.054190133 0.068753846 -0.665202081
1520503433.102938 -28.352643967 -50.572074890 3.764004946 0.723156691 -0.052832413 0.071467333 -0.684942067
1520503433.452962 -28.824621201 -50.605812073 3.751266479 0.736796975 -0.060342092 0.065201432 -0.670252085
1520503433.702986 -29.147668839 -50.670127869 3.737635374 0.756508827 -0.060110647 0.060817603 -0.648369074
1520503433.902992 -29.409259796 -50.720729828 3.742542982 0.740653038 -0.066601694 0.066455908 -0.665267527
1520503434.153010 -29.706901550 -50.745986938 3.766945362 0.716016591 -0.061501075 0.068983659 -0.691938698
1520503434.353035 -29.964281082 -50.750110626 3.726890564 0.701291680 -0.076078877 0.056810930 -0.706522882
1520503434.603043 -30.275003433 -50.760341644 3.769960880 0.712128937 -0.085518204 0.062744208 -0.693990111
1520503434.853066 -30.585420609 -50.747833252 3.756128311 0.707544029 -0.083446063 0.087712929 -0.696221709
1520503435.103073 -30.889736176 -50.706367493 3.783220530 0.656357467 -0.070688397 0.086307146 -0.746156216
1520503435.303083 -31.115146637 -50.622413635 3.782240152 0.604833186 -0.065072663 0.085953325 -0.789021254
1520503435.503089 -31.327598572 -50.505523682 3.753391266 0.547565222 -0.066888720 0.086890861 -0.829546988
1520503435.703100 -31.507850647 -50.377174377 3.773961782 0.492455542 -0.051231816 0.075708635 -0.865523577
1520503435.903106 -31.681407928 -50.245960236 3.745107651 0.456029296 -0.050593838 0.076751851 -0.885204315
1520503436.103126 -31.842317581 -50.090805054 3.736675024 0.393949360 -0.042937983 0.069594130 -0.915487289
1520503436.303132 -31.954797745 -49.912925720 3.757741690 0.316025466 -0.026734859 0.080287665 -0.944969356
1520503436.503148 -32.043998718 -49.707511902 3.724172354 0.241786718 -0.014055334 0.065238409 -0.968031824
1520503436.703154 -32.132755280 -49.494522095 3.760560989 0.209247872 -0.040169232 0.077898860 -0.973926961
1520503436.953157 -32.224361420 -49.246623993 3.769154787 0.208275154 -0.027536787 0.077141821 -0.974634409
1520503437.153164 -32.272377014 -49.002998352 3.753257513 0.168105230 -0.023514494 0.075205088 -0.982614875
1520503437.353153 -32.283969879 -48.754783630 3.787267447 0.093720980 -0.003851357 0.079440169 -0.992416620
1520503437.553159 -32.278736115 -48.500625610 3.754629612 0.033041283 0.000502349 0.065727167 -0.997290313
1520503437.753143 -32.284297943 -48.229354858 3.759085178 0.024005942 0.006202267 0.087706335 -0.995837808
1520503437.953149 -32.304943085 -47.982284546 3.789513111 0.034365375 0.003586816 0.086149499 -0.995682895
1520503438.253142 -32.343105316 -47.591304779 3.760050297 0.022118067 0.005359023 0.092600264 -0.995443285
1520503438.453139 -32.334918976 -47.346782684 3.788765430 -0.028540611 0.005440784 0.090307668 -0.995490015
1520503438.653145 -32.316181183 -47.104324341 3.747205734 -0.059003692 0.009299691 0.079107769 -0.995074868
1520503438.853139 -32.295196533 -46.844734192 3.740696430 -0.058770478 0.008854347 0.086257935 -0.994498551
1520503439.103147 -32.284137726 -46.533233643 3.762067080 -0.051745955 0.014365921 0.081168629 -0.995252550
1520503439.303148 -32.262386322 -46.265655518 3.730629206 -0.051691424 0.019804817 0.080337815 -0.995229483
1520503439.503155 -32.215610504 -46.009540558 3.771153212 -0.086853571 0.021169778 0.091187909 -0.991813064
1520503439.653171 -32.161415100 -45.824867249 3.765786409 -0.110481679 0.023832189 0.082914785 -0.990126789
1520503439.853162 -32.086963654 -45.563224792 3.729743242 -0.121919408 0.014466877 0.092384867 -0.988125205
1520503440.053168 -32.029064178 -45.311408997 3.753907442 -0.113243982 0.013006387 0.079012573 -0.990335166
1520503440.253164 -31.990320206 -45.059715271 3.735109091 -0.090149708 0.029402865 0.072240025 -0.992869556
1520503440.403169 -31.958869934 -44.860511780 3.717303514 -0.104473382 0.022029968 0.080090128 -0.991052806
1520503440.603178 -31.920749664 -44.608528137 3.766693115 -0.120319575 0.028027628 0.082603142 -0.988895535
1520503440.803184 -31.879301071 -44.358707428 3.749483109 -0.117062315 0.020258013 0.092087425 -0.988638401
1520503441.003186 -31.842069626 -44.094848633 3.735049248 -0.093154326 0.018950187 0.091997303 -0.991211236
1520503441.203192 -31.828989029 -43.839340210 3.768767118 -0.051833674 0.012007842 0.082533143 -0.995167017
1520503441.353200 -31.825391769 -43.642658234 3.743698120 -0.025789632 0.013566014 0.079500750 -0.996408820
1520503441.553206 -31.819437027 -43.379848480 3.753852606 -0.037363965 0.018013092 0.077520013 -0.996127546
1520503441.753221 -31.798383713 -43.130355835 3.771915913 -0.055376876 0.027132813 0.064417958 -0.996015847
1520503441.953228 -31.773607254 -42.871364594 3.727442026 -0.060314156 0.020107998 0.081892066 -0.994611323
1520503442.153231 -31.753927231 -42.602226257 3.739743710 -0.037725624 0.011219330 0.080598429 -0.995969296
1520503442.353237 -31.755657196 -42.341636658 3.753311872 -0.007574358 0.018501297 0.071127295 -0.997266889
1520503442.603251 -31.746341705 -42.005889893 3.738828182 -0.000250697 0.010912683 0.082432613 -0.996536911
1520503442.753257 -31.722450256 -41.811485291 3.766516924 -0.029929938 0.017380252 0.082454540 -0.995993674
1520503442.953264 -31.678907394 -41.546916962 3.732458830 -0.065453544 0.017817251 0.074747682 -0.994892538
1520503443.153270 -31.629339218 -41.269195557 3.730657339 -0.052698351 0.013883428 0.077037409 -0.995537758
1520503443.353270 -31.604370117 -41.001232147 3.770970345 -0.022480208 0.018054469 0.087389573 -0.995756865
1520503443.553277 -31.590656281 -40.722763062 3.735701323 -0.008020750 0.008917288 0.089611053 -0.995904684
1520503443.753283 -31.564653397 -40.452415466 3.761498213 -0.048594184 0.015166127 0.065114670 -0.996578515
1520503443.953300 -31.524854660 -40.189792633 3.756139517 -0.059862245 0.015637126 0.067423828 -0.995804250
1520503444.103303 -31.495243073 -39.972484589 3.728817463 -0.056336112 0.004443669 0.080408476 -0.995158792
1520503444.303302 -31.473728180 -39.687168121 3.770641327 -0.022575989 0.005145366 0.085950732 -0.996030331
1520503444.503352 -31.478601456 -39.408691406 3.763182402 0.009708016 0.013444272 0.086387895 -0.996123612
1520503444.803323 -31.465364456 -38.986106873 3.770217896 -0.040842637 0.019158319 0.075571656 -0.996119320
1520503445.053328 -31.424358368 -38.652420044 3.740298510 -0.072764412 0.016509745 0.072816029 -0.994550526
1520503445.353338 -31.377704620 -38.222217560 3.770216942 -0.043569073 0.016795885 0.088635348 -0.994969070
1520503445.603335 -31.370492935 -37.864585876 3.739911079 -0.020114534 0.027786944 0.085780568 -0.995723426
1520503445.803344 -31.364139557 -37.585395813 3.759607792 -0.032773554 0.034782737 0.079171374 -0.995714784
1520503446.053352 -31.325996399 -37.247829437 3.757729769 -0.053544667 0.030117720 0.079805493 -0.994915605
1520503446.253352 -31.300127029 -36.960693359 3.738114119 -0.054598749 0.031050049 0.098012105 -0.993201137
1520503446.503360 -31.295782089 -36.618721008 3.778426647 -0.011666476 0.025342332 0.097923398 -0.994802833
1520503446.803367 -31.292627335 -36.192646027 3.762821436 -0.020543924 0.024876498 0.097920083 -0.994671226
1520503447.053379 -31.269435883 -35.861351013 3.785780668 -0.031342320 0.016575303 0.088346653 -0.995458663
1520503447.303386 -31.241712570 -35.506801605 3.751472473 -0.048172276 0.010641105 0.108552434 -0.992865860
1520503447.503387 -31.230459213 -35.232936859 3.780771971 -0.024712099 0.002616552 0.101355724 -0.994539857
1520503447.803396 -31.230646133 -34.808235168 3.760296106 -0.020452829 0.006514197 0.103945687 -0.994351327
1520503448.003406 -31.215770721 -34.539596558 3.793429613 -0.048459735 0.015282942 0.093698636 -0.994303107
1520503448.253410 -31.178424835 -34.189147949 3.745432377 -0.067444667 0.013615943 0.093149848 -0.993271887
1520503448.503418 -31.158470154 -33.837886810 3.789021969 -0.031758841 0.000411669 0.098477684 -0.994632304
1520503448.753426 -31.160156250 -33.483283997 3.761882782 0.000998748 0.013453045 0.109893754 -0.993851840
1520503449.003433 -31.146686554 -33.143081665 3.786601067 -0.028989058 0.015471824 0.095250621 -0.994910896
1520503449.253447 -31.116796494 -32.803394318 3.749426126 -0.045866892 0.021307651 0.102089144 -0.993488908
1520503449.453453 -31.096805573 -32.516685486 3.760339499 -0.029527521 0.013536923 0.099760070 -0.994481206
1520503449.653454 -31.103294373 -32.239459991 3.778503656 0.008193714 0.011877136 0.088050038 -0.996011555
1520503449.903469 -31.116163254 -31.880128860 3.733016014 0.008705619 0.000312142 0.091311477 -0.995784342
1520503450.153477 -31.103109360 -31.547586441 3.752171993 -0.006914100 -0.016458783 0.106247365 -0.994179487
1520503450.353487 -31.087144852 -31.268484116 3.710328341 -0.026932834 -0.010661081 0.111732036 -0.993316114
1520503450.553493 -31.082185745 -30.986465454 3.729586601 -0.017922265 -0.017939351 0.096194543 -0.995039463
1520503450.803496 -31.100849152 -30.639440536 3.734333277 0.016521130 0.002386237 0.120999649 -0.992512226
1520503451.003502 -31.111473083 -30.359775543 3.741532803 0.001276666 0.024300624 0.102906637 -0.994393408
1520503451.253515 -31.099193573 -30.017572403 3.751787901 -0.017350668 0.020312909 0.124696895 -0.991835177
1520503451.553519 -31.081747055 -29.590946198 3.745996237 -0.025955761 0.021964958 0.120590083 -0.992119908
1520503451.853528 -31.099124908 -29.179656982 3.738137960 0.031517919 0.022482835 0.112755470 -0.992868304
1520503452.053540 -31.110923767 -28.903858185 3.753490925 0.021659615 0.024563964 0.114955626 -0.992830694
1520503452.253546 -31.113410950 -28.632865906 3.766075134 0.016734276 0.029114239 0.098358415 -0.994584322
1520503452.453557 -31.118419647 -28.351814270 3.730649233 0.011052634 0.025495475 0.104749404 -0.994110346
1520503452.653563 -31.137817383 -28.077360153 3.763671637 0.021092402 0.014887045 0.104794830 -0.994158745
1520503452.853571 -31.180820465 -27.812086105 3.750369310 0.043315936 0.010019664 0.097779356 -0.994214594
1520503453.153581 -31.243286133 -27.421461105 3.782752752 0.042281080 0.007150471 0.107410468 -0.993289590
1520503453.453598 -31.279336929 -27.029260635 3.742567062 0.049267195 0.022486772 0.105796725 -0.992911994
1520503453.703609 -31.301416397 -26.688718796 3.760385990 0.050894614 0.014281534 0.105584867 -0.993004382
1520503453.903615 -31.339330673 -26.436046600 3.754366398 0.080027178 0.017250456 0.103402600 -0.991264880
1520503454.103625 -31.376476288 -26.170516968 3.752521276 0.056273405 -0.005798028 0.096555449 -0.993718684
1520503454.353631 -31.398693085 -25.849939346 3.791367292 0.020292260 0.016861958 0.108331434 -0.993764699
1520503454.603639 -31.408473969 -25.516937256 3.751545906 0.021935109 0.033703111 0.123036847 -0.991587102
1520503454.853645 -31.428712845 -25.204637527 3.785033941 0.040328950 0.013825946 0.101111129 -0.993961275
1520503455.103653 -31.447031021 -24.872438431 3.759774446 0.028998638 0.005362554 0.095279269 -0.995013714
1520503455.403668 -31.442743301 -24.492473602 3.795565367 0.000770096 0.011146656 0.099902458 -0.994934559
1520503455.603675 -31.421869278 -24.227125168 3.754774332 -0.016992485 0.016192347 0.114971548 -0.993091464
1520503455.853681 -31.412742615 -23.887533188 3.790551186 -0.023935040 0.007669804 0.128443733 -0.991398275
1520503456.153691 -31.437911987 -23.483209610 3.763926029 0.001650313 0.021966923 0.126262397 -0.991752326
1520503456.403699 -31.442831039 -23.161329269 3.807640314 -0.027061546 0.031755473 0.115714997 -0.992405891
1520503456.603714 -31.436338425 -22.896511078 3.768859863 -0.048155751 0.021738309 0.117787845 -0.991632223
1520503456.903724 -31.442771912 -22.500429153 3.793767929 -0.000146939 0.010527479 0.132688016 -0.991101980
